#     FILENAME=Skynet_59735_AP_-_ST3_81159_29887.A.spect.cal.txt
#     BASENAME=Skynet_59735_AP_-_ST3_81159_29887
#      CONTROL=SKYNET
#     PROJCODE=Skynet_59735_AP_-_ST3_81159
#     DATAROOT=/raid/scratch/cyborg/SkynetData
#      DATADIR=/raid/scratch/cyborg
#     DATADIR2=/raid/scratch/cyborg/SkynetData/Skynet_59735_AP_-_ST3_81159/Cyb
#     SCANNAME=2022_05_26_22
#     SRC_NAME=AP_-_ST3
#     OBSERVER=socamrad_21318
#     DATE_OBS=2022-06-05T19:37:56.450
#        OBSID=81159
#      SCANNUM=29887
#          MJD=59735.8180145
#          UTC=70676
#     SCANTYPE=ralongmap
#     DATAMODE=HIRES
#     RECEIVER=Rx1_2
#      OBSFREQ=1421.8800
# Actual_FREQ1=1550.0000,
# Actual_FREQ2=1425.0000
#    LO1Tuning=6937.5000
#     RFFILTER=1300_1800
#        OBSBW=-15.6250
#     EFFBANDW=15.6250
#        NCHAN=1024
#    STARTCHAN=51
#     STOPCHAN=972
#         TINT=0.3000
#         TBIN=0.00419430
#       ACCLEN=2048 
#     DURATION=147.00
#     EXPOSURE=98.39
#        FOCUS=37.071
#       RA,DEC=05:30:44.34, 17:17:45.36
#      RA(deg)=85.44407
#     DEC(deg)=19.98307
#   WIDTH(deg)=5.6474x5.8823
#    AZIM(deg)=233.7448
#    ELEV(deg)=62.4715
#     COORDREF=RA_DEC_
#         HREF=85.5000
#         VREF=20.0000
#      RADESYS=FK5
#       OFFSYS=RADEC
#      EQUINOX=2000.00
#     IFATTENS=16.00, 19.00
#   BALANCELEV=1.200 
#   POWER_XLYR=[1.07, 1.38] 
#       VELDEF=RADI-OBS 
#     VELOCITY=0.000 
#         NPOL=2 
#      POLMODE=Linear 
#      POLTYPE=XXYY 
#      WARNING=None 
#     NOISECAL=HI 
#       PRECAL=2 
#      POSTCAL=2 
#     CRYOTEMP=15 
#      BOXTEMP=23 
#         TSYS=XX1:204.96, YY1:158.48
#         TSYS=XX2:37.86, YY2:51.01
#         TCAL=XX1:9.31, YY1:11.00
#         TCAL=XX2:9.18, YY2:10.14
# Calibrated spectra 
#                
#                
#Freq1(MHz)         XX1          YY1   Freq2(MHz)       XX2         YY2 
   1557.03430      26.8787      35.5712    1432.03430      20.3332      24.4434
   1557.01904      26.9309      35.2597    1432.01904      20.4185      24.5124
   1557.00378      27.7473      35.6741    1432.00378      20.5225      24.6305
   1556.98853      29.6880      36.9132    1431.98853      20.6082      24.7471
   1556.97327      30.2669      37.3786    1431.97327      20.7071      24.8569
   1556.95801      30.2991      37.5697    1431.95801      20.8002      24.9385
   1556.94275      30.1093      37.3671    1431.94275      20.9211      25.0395
   1556.92749      30.3276      37.7511    1431.92749      21.0229      25.1354
   1556.91223      30.3924      37.7531    1431.91223      21.1286      25.2229
   1556.89697      30.3305      37.8470    1431.89697      21.2366      25.3441
   1556.88171      30.3590      37.9253    1431.88171      21.3210      25.4559
   1556.86646      30.4191      38.1093    1431.86646      21.4079      25.5641
   1556.85120      29.5619      37.6415    1431.85120      21.5639      25.6824
   1556.83594      28.5088      37.0765    1431.83594      21.6950      25.8408
   1556.82068      28.3042      36.9995    1431.82068      21.7412      25.8863
   1556.80542      28.4485      37.1468    1431.80542      21.8734      26.0387
   1556.79016      28.5558      37.3439    1431.79016      21.9640      26.1128
   1556.77490      28.8563      37.5671    1431.77490      22.1086      26.1970
   1556.75964      29.0226      37.8367    1431.75964      22.2498      26.3457
   1556.74438      29.2082      37.9152    1431.74438      22.3280      26.4633
   1556.72913      29.3783      38.1982    1431.72913      22.4868      26.5629
   1556.71387      29.6824      38.7253    1431.71387      22.5530      26.6859
   1556.69861      29.9864      39.3156    1431.69861      22.7021      26.8037
   1556.68335      30.1863      39.6417    1431.68335      22.7918      26.8945
   1556.66809      30.3224      39.6495    1431.66809      22.9145      27.0019
   1556.65283      30.4310      39.8775    1431.65283      23.0717      27.1421
   1556.63757      30.4960      39.9543    1431.63757      23.1916      27.2338
   1556.62231      30.6487      40.0500    1431.62231      23.3153      27.3296
   1556.60706      30.7794      40.1963    1431.60706      23.4704      27.4593
   1556.59180      30.9711      39.9140    1431.59180      23.5872      27.5764
   1556.57654      31.7123      40.3649    1431.57654      23.6529      27.7022
   1556.56128      32.6224      41.0678    1431.56128      23.8631      27.8331
   1556.54602      33.0259      41.6245    1431.54602      23.9961      27.8923
   1556.53076      33.9315      42.3322    1431.53076      24.0912      28.0233
   1556.51550      37.5514      44.7725    1431.51550      24.2338      28.1469
   1556.50024      38.2583      45.2750    1431.50024      24.3910      28.2573
   1556.48499      38.4721      45.5584    1431.48499      24.5158      28.3630
   1556.46973      38.6548      45.5349    1431.46973      24.6129      28.4670
   1556.45447      39.1526      46.1806    1431.45447      24.7430      28.6204
   1556.43921      39.8734      46.4015    1431.43921      24.9224      28.7126
   1556.42395      37.1391      44.5760    1431.42395      25.0522      28.7974
   1556.40869      40.0115      46.7095    1431.40869      25.1981      28.9365
   1556.39343      45.9769      50.8819    1431.39343      25.2974      29.0206
   1556.37817      45.5537      50.7837    1431.37817      25.4583      29.1108
   1556.36292      45.5359      51.0597    1431.36292      25.5857      29.2630
   1556.34766      45.2165      50.6719    1431.34766      25.7719      29.3902
   1556.33240      45.5184      51.1529    1431.33240      25.8273      29.4520
   1556.31714      47.1389      51.6537    1431.31714      26.0088      29.5647
   1556.30188      61.2762      60.5092    1431.30188      26.1711      29.6878
   1556.28662     207.0024     148.4675    1431.28662      26.2808      29.7816
   1556.27136      49.3066      52.9033    1431.27136      26.4327      29.9046
   1556.25610      44.5389      49.8407    1431.25610      26.5173      29.9498
   1556.24084      39.8223      46.9374    1431.24084      26.6858      30.0846
   1556.22559      36.4017      44.8200    1431.22559      26.8305      30.1669
   1556.21033      38.6596      46.3271    1431.21033      27.0020      30.3011
   1556.19507      38.7787      46.4999    1431.19507      27.0929      30.3787
   1556.17981      36.9599      45.5248    1431.17981      27.2280      30.4648
   1556.16455      40.6832      48.0059    1431.16455      27.3608      30.5554
   1556.14929      42.5997      49.3342    1431.14929      27.5496      30.7446
   1556.13403      40.2447      47.8426    1431.13403      27.6347      30.8393
   1556.11877      37.2827      45.8989    1431.11877      27.7853      30.9010
   1556.10352      38.3033      46.5111    1431.10352      27.8973      30.9730
   1556.08826      38.4192      46.8608    1431.08826      28.0577      31.0831
   1556.07300      37.6768      46.5991    1431.07300      28.2593      31.1282
   1556.05774      38.6315      47.4193    1431.05774      28.3612      31.2554
   1556.04248      39.1729      47.8896    1431.04248      28.5003      31.3989
   1556.02722      39.4712      48.5755    1431.02722      28.5938      31.4685
   1556.01196      41.3912      50.7606    1431.01196      28.7449      31.5106
   1555.99670      67.5611      77.1986    1430.99670      28.9136      31.6814
   1555.98145     126.8793     134.1953    1430.98145      29.0392      31.7728
   1555.96619      93.3352     100.6991    1430.96619      29.1353      31.8554
   1555.95093      50.4377      58.6299    1430.95093      29.2743      31.9137
   1555.93567      75.1122      82.9412    1430.93567      29.4291      31.9863
   1555.92041     502.8249     494.1830    1430.92041      29.5879      32.0852
   1555.90515      89.0363      95.4429    1430.90515      29.6875      32.1639
   1555.88989      48.0580      56.0044    1430.88989      29.8208      32.2299
   1555.87463      43.8052      51.8298    1430.87463      29.9322      32.3137
   1555.85938      43.3276      51.4320    1430.85938      30.0950      32.4466
   1555.84412      44.7779      52.9461    1430.84412      30.2242      32.5039
   1555.82886      51.9884      59.8199    1430.82886      30.3000      32.5634
   1555.81360     189.0242     191.2022    1430.81360      30.4885      32.6337
   1555.79834     136.0527     141.0042    1430.79834      30.5701      32.7607
   1555.78308     166.4315     171.1430    1430.78308      30.7064      32.7934
   1555.76782      62.6023      70.6128    1430.76782      30.8657      32.8473
   1555.75256      47.6210      55.9725    1430.75256      30.9926      32.9776
   1555.73730      43.7707      52.0276    1430.73730      31.0615      32.9838
   1555.72205      42.8150      51.1473    1430.72205      31.1980      33.0954
   1555.70679      42.4894      50.9280    1430.70679      31.3099      33.1833
   1555.69153      42.3328      50.4840    1430.69153      31.4838      33.2178
   1555.67627      42.8800      50.8452    1430.67627      31.5695      33.3219
   1555.66101      42.7297      50.6727    1430.66101      31.6929      33.3549
   1555.64575      43.6659      51.1370    1430.64575      31.8556      33.4409
   1555.63049      43.0483      50.9052    1430.63049      31.9098      33.4772
   1555.61523      43.8823      51.9107    1430.61523      32.0274      33.5372
   1555.59998      54.2985      67.4237    1430.59998      32.1418      33.5969
   1555.58472      60.0911      68.3088    1430.58472      32.2790      33.6750
   1555.56946      50.1574      57.7349    1430.56946      32.4278      33.7624
   1555.55420     130.3188     134.7353    1430.55420      32.5686      33.7637
   1555.53894      73.0339      79.8130    1430.53894      32.6260      33.8859
   1555.52368     217.8208     219.4912    1430.52368      32.7025      33.9156
   1555.50842     320.2335     318.1897    1430.50842      32.8235      33.9635
   1555.49316     176.2439     177.9840    1430.49316      32.9534      34.0118
   1555.47791      62.2754      68.8347    1430.47791      33.0798      34.0713
   1555.46265      48.9863      56.2416    1430.46265      33.1936      34.1406
   1555.44739      46.7634      54.2971    1430.44739      33.2970      34.1568
   1555.43213      45.7701      53.5182    1430.43213      33.4411      34.2136
   1555.41687      45.2123      52.6376    1430.41687      33.5403      34.3134
   1555.40161      45.0771      52.6409    1430.40161      33.6356      34.3223
   1555.38635      44.8874      52.1288    1430.38635      33.7051      34.3754
   1555.37109      44.9346      52.0520    1430.37109      33.8767      34.4969
   1555.35583      44.8546      52.1194    1430.35583      33.9179      34.5028
   1555.34058      44.6561      51.5298    1430.34058      34.0805      34.5356
   1555.32532      44.6555      51.2920    1430.32532      34.1106      34.6056
   1555.31006      44.8124      51.3278    1430.31006      34.2456      34.5603
   1555.29480      44.8493      51.4160    1430.29480      34.3069      34.6090
   1555.27954      44.9368      51.3376    1430.27954      34.4644      34.7193
   1555.26428      45.0241      51.4737    1430.26428      34.5425      34.7395
   1555.24902      45.0960      51.4001    1430.24902      34.5945      34.7714
   1555.23376      45.2775      51.4794    1430.23376      34.6912      34.7668
   1555.21851      45.3838      51.6368    1430.21851      34.7685      34.8490
   1555.20325      45.5145      51.5936    1430.20325      34.9116      34.8130
   1555.18799      45.6862      51.8040    1430.18799      35.0160      34.9173
   1555.17273      45.7905      51.8614    1430.17273      35.0547      34.9072
   1555.15747      46.4066      53.0535    1430.15747      35.1685      34.9777
   1555.14221      47.4358      54.8966    1430.14221      35.2631      35.0085
   1555.12695      47.7695      55.5444    1430.12695      35.3884      35.0435
   1555.11169      48.0366      55.8764    1430.11169      35.4271      35.0634
   1555.09644      48.1252      55.8032    1430.09644      35.4479      35.0699
   1555.08118      48.3446      55.8861    1430.08118      35.5778      35.1282
   1555.06592      48.2974      55.9038    1430.06592      35.7186      35.1466
   1555.05066      48.4095      55.6267    1430.05066      35.8220      35.1941
   1555.03540      47.8150      54.2522    1430.03540      35.8860      35.2579
   1555.02014      47.1765      52.6875    1430.02014      35.9398      35.2458
   1555.00488      47.2364      52.6671    1430.00488      36.0341      35.2970
   1554.98962      47.5425      53.0557    1429.98962      36.1297      35.2867
   1554.97437      47.8428      53.2968    1429.97437      36.1381      35.3119
   1554.95911      48.2751      53.8099    1429.95911      36.2203      35.3822
   1554.94385      48.2525      53.7120    1429.94385      36.3345      35.3687
   1554.92859      48.8606      54.2474    1429.92859      36.4159      35.3971
   1554.91333      49.3442      54.6094    1429.91333      36.4956      35.4242
   1554.89807      60.6637      73.1949    1429.89807      36.5320      35.4267
   1554.88281      63.2879      67.5318    1429.88281      36.6887      35.4913
   1554.86755      90.2520      92.1674    1429.86755      36.7642      35.4227
   1554.85229     122.4726     122.1554    1429.85229      36.7451      35.4834
   1554.83704     144.2262     142.0541    1429.83704      36.8489      35.4909
   1554.82178     142.6222     140.0245    1429.82178      36.9195      35.5192
   1554.80652     140.2819     137.0320    1429.80652      37.0374      35.5915
   1554.79126     142.3668     138.1539    1429.79126      37.0754      35.5366
   1554.77600     143.2475     139.8673    1429.77600      37.1046      35.5512
   1554.76074     147.3872     143.1436    1429.76074      37.1944      35.5972
   1554.74548     143.0135     138.9230    1429.74548      37.3080      35.5813
   1554.73022     144.7672     140.3753    1429.73022      37.3700      35.6349
   1554.71497     141.5673     137.2742    1429.71497      37.4097      35.6214
   1554.69971     143.4719     137.9162    1429.69971      37.4578      35.6751
   1554.68445     150.4735     143.3006    1429.68445      37.5163      35.6234
   1554.66919     146.0789     140.2113    1429.66919      37.5758      35.6873
   1554.65393     148.6060     142.7260    1429.65393      37.6552      35.6339
   1554.63867     144.6204     138.8574    1429.63867      37.7968      35.6711
   1554.62341     143.6111     137.7501    1429.62341      37.8031      35.7002
   1554.60815     147.2380     139.8853    1429.60815      37.8690      35.7195
   1554.59290     152.2562     144.3814    1429.59290      37.9355      35.6946
   1554.57764     144.4065     137.1402    1429.57764      37.9616      35.7430
   1554.56238     138.3547     131.3464    1429.56238      37.9937      35.6884
   1554.54712     122.9287     117.8568    1429.54712      38.1103      35.8055
   1554.53186      93.2966      91.5822    1429.53186      38.1814      35.7635
   1554.51660      67.6063      68.4586    1429.51660      38.2562      35.7571
   1554.50134      58.4317      60.5858    1429.50134      38.2860      35.8163
   1554.48608      59.3757      61.3321    1429.48608      38.4001      35.8141
   1554.47083      61.7343      63.4142    1429.47083      38.3962      35.8190
   1554.45557      61.1714      62.6056    1429.45557      38.4827      35.7862
   1554.44031      61.7680      63.2756    1429.44031      38.5011      35.8441
   1554.42505      61.6770      62.9447    1429.42505      38.5311      35.8604
   1554.40979      62.1597      63.3104    1429.40979      38.5887      35.8784
   1554.39453      62.0536      63.1434    1429.39453      38.6883      35.8612
   1554.37927      62.2072      63.3439    1429.37927      38.7381      35.8787
   1554.36401      62.1195      63.0539    1429.36401      38.8159      35.8663
   1554.34875      61.9888      62.9668    1429.34875      38.8893      35.9067
   1554.33350      62.1742      63.1347    1429.33350      38.9046      35.8971
   1554.31824      62.8120      63.3699    1429.31824      38.9546      35.8965
   1554.30298      62.2928      62.9094    1429.30298      39.0715      35.8288
   1554.28772      62.8630      63.3145    1429.28772      39.0299      35.9325
   1554.27246      62.4380      62.7549    1429.27246      39.1236      35.9375
   1554.25720      62.7076      62.9401    1429.25720      39.1522      35.8979
   1554.24194      62.3599      62.4422    1429.24194      39.1888      35.9646
   1554.22668      63.2550      63.2329    1429.22668      39.2781      35.9201
   1554.21143      61.6347      61.7547    1429.21143      39.3228      35.9370
   1554.19617      59.3940      60.1717    1429.19617      39.3473      35.9712
   1554.18091      56.6290      58.3820    1429.18091      39.3760      35.9459
   1554.16565      55.6315      58.5253    1429.16565      39.4469      35.9692
   1554.15039      55.5066      59.1698    1429.15039      39.5295      35.9985
   1554.13513      55.9888      60.0157    1429.13513      39.6160      36.0043
   1554.11987      56.2933      60.7841    1429.11987      39.6376      36.0062
   1554.10461      56.1910      60.2436    1429.10461      39.6844      35.9969
   1554.08936      56.2089      60.0713    1429.08936      39.7136      36.0186
   1554.07410      56.3513      60.2798    1429.07410      39.7246      36.0101
   1554.05884      56.4092      60.6986    1429.05884      39.7793      36.0222
   1554.04358      56.4897      60.5233    1429.04358      39.8907      36.0782
   1554.02832      56.8547      61.2409    1429.02832      39.9106      36.0500
   1554.01306      56.6883      60.8373    1429.01306      39.9389      36.0683
   1553.99780      56.9902      61.1439    1428.99780      39.9399      36.1047
   1553.98254      56.9531      61.0790    1428.98254      39.9801      36.0708
   1553.96729      57.0133      60.9846    1428.96729      40.0940      36.1492
   1553.95203      56.7529      60.6179    1428.95203      40.1019      36.1051
   1553.93677      56.7737      60.3884    1428.93677      40.1048      36.0855
   1553.92151      56.9088      60.4813    1428.92151      40.1568      36.1403
   1553.90625      57.0348      60.3012    1428.90625      40.2566      36.1664
   1553.89099      57.1020      60.7229    1428.89099      40.2407      36.1174
   1553.87573      57.1525      60.4916    1428.87573      40.3025      36.1602
   1553.86047      56.3172      58.7466    1428.86047      40.4173      36.1839
   1553.84521      55.4634      57.2288    1428.84521      40.3933      36.2142
   1553.82996      54.8847      55.8453    1428.82996      40.4033      36.2305
   1553.81470      54.5762      55.0504    1428.81470      40.4668      36.1679
   1553.79944      54.6427      55.1876    1428.79944      40.4950      36.2176
   1553.78418      54.5709      54.8005    1428.78418      40.5689      36.3064
   1553.76892      54.4331      54.3280    1428.76892      40.6007      36.2669
   1553.75366      54.5691      54.4808    1428.75366      40.5546      36.2851
   1553.73840      54.8959      54.9762    1428.73840      40.6507      36.2758
   1553.72314      55.1494      55.1927    1428.72314      40.7311      36.2978
   1553.70789      55.1447      55.3120    1428.70789      40.7849      36.3577
   1553.69263      55.2122      55.2014    1428.69263      40.7769      36.3529
   1553.67737      55.2960      55.3631    1428.67737      40.8480      36.3585
   1553.66211      55.3630      55.1296    1428.66211      40.8756      36.3666
   1553.64685      55.3833      55.2762    1428.64685      40.8982      36.4459
   1553.63159      55.2310      54.8944    1428.63159      40.9380      36.4452
   1553.61633      54.9687      54.4168    1428.61633      41.0676      36.4556
   1553.60107      55.0810      54.4467    1428.60107      41.0475      36.4770
   1553.58582      55.4175      55.0577    1428.58582      41.0367      36.5013
   1553.57056      55.9787      55.7523    1428.57056      41.0951      36.4859
   1553.55530      57.2591      56.7287    1428.55530      41.1368      36.5667
   1553.54004      59.0714      57.9536    1428.54004      41.2041      36.5369
   1553.52478      60.7088      59.2419    1428.52478      41.2402      36.5941
   1553.50952      61.9726      59.8919    1428.50952      41.3248      36.5987
   1553.49426      61.8465      59.6913    1428.49426      41.3111      36.7199
   1553.47900      61.7555      59.4788    1428.47900      41.4390      36.7134
   1553.46375      61.2717      58.2898    1428.46375      41.3836      36.6836
   1553.44849      61.3767      58.3766    1428.44849      41.4499      36.7701
   1553.43323      60.9401      57.7808    1428.43323      41.4309      36.6881
   1553.41797      61.7503      58.0096    1428.41797      41.4353      36.7596
   1553.40271      61.2736      57.8027    1428.40271      41.5502      36.8336
   1553.38745      61.2401      57.8385    1428.38745      41.5802      36.8754
   1553.37219      61.1220      57.5005    1428.37219      41.6098      36.8660
   1553.35693      61.3733      57.7559    1428.35693      41.6055      36.8793
   1553.34167      61.3657      57.6397    1428.34167      41.6623      36.8701
   1553.32642      61.5787      57.9101    1428.32642      41.7271      36.9650
   1553.31116      61.4503      57.6450    1428.31116      41.7406      36.9825
   1553.29590      61.6191      57.7609    1428.29590      41.7459      36.9479
   1553.28064      60.9258      57.1917    1428.28064      41.8472      37.0377
   1553.26538      61.6632      57.7980    1428.26538      41.7739      37.0808
   1553.25012      60.3614      56.6358    1428.25012      41.8936      37.1731
   1553.23486      58.9038      55.4660    1428.23486      41.8872      37.1712
   1553.21960      56.6650      53.6715    1428.21960      41.9876      37.2314
   1553.20435      55.6132      52.8674    1428.20435      41.9847      37.2113
   1553.18909      55.3122      52.6542    1428.18909      42.0287      37.2682
   1553.17383      55.4422      52.6281    1428.17383      42.0413      37.3518
   1553.15857      55.3523      52.5961    1428.15857      42.1153      37.2860
   1553.14331      55.3015      52.6785    1428.14331      42.0488      37.2769
   1553.12805      55.4445      52.4898    1428.12805      42.0859      37.3983
   1553.11279      55.4096      52.6512    1428.11279      42.1601      37.4852
   1553.09753      55.4696      52.6391    1428.09753      42.2550      37.4784
   1553.08228      55.5765      52.6638    1428.08228      42.2359      37.5104
   1553.06702      55.5614      52.6003    1428.06702      42.2748      37.5785
   1553.05176      55.6085      52.7412    1428.05176      42.2727      37.6361
   1553.03650      55.7504      52.7047    1428.03650      42.4030      37.5994
   1553.02124      55.8097      52.7920    1428.02124      42.3629      37.6834
   1553.00598      55.7910      52.7696    1428.00598      42.4094      37.7759
   1552.99072      55.8577      52.7305    1427.99072      42.3941      37.7441
   1552.97546      55.9046      52.6839    1427.97546      42.4025      37.8450
   1552.96021      56.0019      52.8401    1427.96021      42.5237      37.9257
   1552.94495      56.0789      52.8374    1427.94495      42.4447      37.9468
   1552.92969      56.5313      52.9775    1427.92969      42.4947      38.0180
   1552.91443      56.0780      52.8966    1427.91443      42.5138      38.0534
   1552.89917      56.1610      52.8613    1427.89917      42.5927      38.1281
   1552.88391      56.3018      52.9538    1427.88391      42.5395      38.1644
   1552.86865      56.2814      52.9660    1427.86865      42.5668      38.2562
   1552.85339      56.4206      53.0796    1427.85339      42.6005      38.2038
   1552.83813      56.5128      53.0331    1427.83813      42.6995      38.2561
   1552.82288      56.4855      53.0406    1427.82288      42.7050      38.3200
   1552.80762      56.6186      53.1491    1427.80762      42.7232      38.4042
   1552.79236      56.6996      53.1745    1427.79236      42.7878      38.4081
   1552.77710      56.7960      53.1850    1427.77710      42.7465      38.5154
   1552.76184      56.9521      53.2733    1427.76184      42.7944      38.5610
   1552.74658      56.9847      53.4421    1427.74658      42.8272      38.5841
   1552.73132      57.1015      53.4534    1427.73132      42.8123      38.6555
   1552.71606      57.2482      53.4523    1427.71606      42.8729      38.7496
   1552.70081      57.3319      53.6079    1427.70081      42.8383      38.7403
   1552.68555      57.4283      53.6103    1427.68555      42.8624      38.8604
   1552.67029      57.5779      53.6317    1427.67029      42.8812      38.9059
   1552.65503      57.7267      53.7714    1427.65503      42.9644      38.9508
   1552.63977      57.8786      53.8836    1427.63977      42.9354      39.0009
   1552.62451      58.1034      53.9752    1427.62451      42.9491      39.0841
   1552.60925      58.3092      54.1617    1427.60925      42.9293      39.1483
   1552.59399      58.5281      54.3036    1427.59399      42.9984      39.1987
   1552.57874      58.7397      54.4504    1427.57874      42.9920      39.1336
   1552.56348      59.0603      54.6460    1427.56348      43.1046      39.2768
   1552.54822      59.3208      54.7792    1427.54822      43.0588      39.3772
   1552.53296      59.7274      55.1072    1427.53296      43.1056      39.4910
   1552.51770      60.0822      55.4018    1427.51770      43.0726      39.4615
   1552.50244      60.6002      55.8092    1427.50244      43.0502      39.5644
   1552.48718      61.2860      56.2058    1427.48718      43.0899      39.6412
   1552.47192      61.9640      56.6404    1427.47192      43.1341      39.7631
   1552.45667      62.9116      57.3544    1427.45667      43.1038      39.8398
   1552.44141      64.6041      58.4381    1427.44141      43.2153      39.8403
   1552.42615      65.6993      59.3329    1427.42615      43.1467      39.9130
   1552.41089      68.1126      61.0817    1427.41089      43.0795      39.9747
   1552.39563      71.9419      63.8443    1427.39563      43.1271      40.0998
   1552.38037      78.8793      68.9378    1427.38037      43.2125      40.2195
   1552.36511     133.9983     109.0142    1427.36511      43.2000      40.1342
   1552.34985     180.5519     142.2025    1427.34985      43.2255      40.2664
   1552.33459     547.9318     406.4840    1427.33459      43.1826      40.2959
   1552.31934    1169.6620     855.5205    1427.31934      43.1790      40.4166
   1552.30408    1487.3805    1083.2518    1427.30408      43.2096      40.4945
   1552.28882    1432.8576    1043.3259    1427.28882      43.2484      40.5385
   1552.27356    1448.8341    1051.6318    1427.27356      43.2637      40.6296
   1552.25830    1504.6386    1090.1510    1427.25830      43.2023      40.7152
   1552.24304    1490.3596    1071.2753    1427.24304      43.2337      40.7992
   1552.22778    1474.8908    1056.0933    1427.22778      43.2931      40.8743
   1552.21252    1453.4330    1034.4704    1427.21252      43.2254      40.8887
   1552.19727    1517.7755    1083.1316    1427.19727      43.3015      41.0219
   1552.18201    1485.5597    1053.8214    1427.18201      43.2506      41.1040
   1552.16675    1490.0224    1057.1461    1427.16675      43.2545      41.2004
   1552.15149    1456.0348    1031.4360    1427.15149      43.3015      41.2160
   1552.13623    1480.3203    1052.3101    1427.13623      43.2468      41.3550
   1552.12097    1530.1903    1085.1731    1427.12097      43.2573      41.4237
   1552.10571    1367.0988     971.4603    1427.10571      43.2840      41.5131
   1552.09045    1112.7097     791.8013    1427.09045      43.2434      41.6451
   1552.07520     548.7019     397.5810    1427.07520      43.2637      41.6252
   1552.05994     164.0562     127.9545    1427.05994      43.1835      41.7352
   1552.04468      91.0047      76.8486    1427.04468      43.2533      41.7588
   1552.02942      81.0151      69.9096    1427.02942      43.2460      41.8564
   1552.01416      93.6380      78.7971    1427.01416      43.2272      41.9816
   1551.99890     122.7170      99.0082    1426.99890      43.1457      42.0474
   1551.98364      79.0492      68.6099    1426.98364      43.1518      42.1310
   1551.96838      90.7111      77.0868    1426.96838      43.2329      42.1860
   1551.95312     104.5961      86.6695    1426.95312      43.1908      42.3086
   1551.93787     102.5567      85.7198    1426.93787      43.1047      42.4236
   1551.92261     102.5837      85.7833    1426.92261      43.1300      42.4450
   1551.90735     103.7368      86.6030    1426.90735      43.1121      42.5238
   1551.89209     104.0022      86.6796    1426.89209      43.0911      42.6247
   1551.87683     103.8411      86.6831    1426.87683      43.1037      42.6953
   1551.86157     103.5112      86.0339    1426.86157      43.0991      42.7839
   1551.84631     104.4460      86.6292    1426.84631      43.1329      42.9199
   1551.83105     105.4294      87.2656    1426.83105      43.1140      42.9151
   1551.81580     105.9067      87.6296    1426.81580      43.0902      43.1035
   1551.80054     107.6249      88.7363    1426.80054      43.0600      43.1628
   1551.78528     108.0690      89.0198    1426.78528      43.0527      43.2158
   1551.77002     111.3372      91.4577    1426.77002      43.0417      43.3289
   1551.75476     112.3456      91.6539    1426.75476      42.9977      43.4302
   1551.73950     112.9377      92.1279    1426.73950      42.9828      43.4717
   1551.72424     107.6096      87.8423    1426.72424      42.9988      43.6001
   1551.70898     114.4175      92.2308    1426.70898      42.9625      43.6953
   1551.69373     215.7577     161.4867    1426.69373      42.9623      43.7783
   1551.67847     680.6955     478.9944    1426.67847      42.8326      43.8716
   1551.66321    1536.9525    1064.6827    1426.66321      42.8100      43.9278
   1551.64795    2447.3091    1682.8767    1426.64795      42.8983      44.0927
   1551.63269    2823.9425    1926.8019    1426.63269      42.9299      44.1036
   1551.61743    2705.6229    1843.0925    1426.61743      42.8118      44.2354
   1551.60217    2718.9570    1845.4692    1426.60217      43.1232      44.5074
   1551.58691    2715.2511    1835.2749    1426.58691      42.7942      44.4140
   1551.57166    2850.7395    1920.9542    1426.57166      42.7183      44.4279
   1551.55640    2862.6020    1927.0918    1426.55640      42.6719      44.5571
   1551.54114    2736.3939    1837.8353    1426.54114      42.7590      44.7401
   1551.52588    2796.0517    1869.4998    1426.52588      42.6065      44.7654
   1551.51062    2721.5294    1828.2306    1426.51062      42.6500      44.8571
   1551.49536    2752.4871    1843.9951    1426.49536      42.5024      45.0307
   1551.48010    2831.2332    1892.0890    1426.48010      42.6432      45.1007
   1551.46484    2768.2498    1837.1776    1426.46484      42.5933      45.0461
   1551.44958    2771.3905    1838.3397    1426.44958      42.5513      45.2474
   1551.43433    2721.1407    1793.6300    1426.43433      42.4903      45.3523
   1551.41907    2686.0924    1778.3867    1426.41907      42.4534      45.4376
   1551.40381    2816.2635    1858.5321    1426.40381      42.4933      45.4997
   1551.38855    2899.2783    1888.8469    1426.38855      42.4180      45.5630
   1551.37329    2642.4056    1724.9355    1426.37329      42.3633      45.6695
   1551.35803    2464.2770    1609.1689    1426.35803      42.3372      45.7615
   1551.34277    1893.5533    1236.8151    1426.34277      42.2939      45.8815
   1551.32751    1012.7001     671.1929    1426.32751      42.2397      46.0642
   1551.31226     361.7340     250.2481    1426.31226      42.2003      46.0715
   1551.29700     131.6726     101.8726    1426.29700      42.1364      46.2228
   1551.28174      97.1131      79.5207    1426.28174      42.1656      46.2212
   1551.26648      86.4839      72.6539    1426.26648      42.2128      46.3705
   1551.25122      80.5066      68.8031    1426.25122      42.1136      46.4641
   1551.23596      76.4763      66.2252    1426.23596      42.0328      46.5498
   1551.22070      75.1345      65.3423    1426.22070      42.0323      46.5802
   1551.20544      76.8333      66.7102    1426.20544      41.9870      46.6938
   1551.19019      91.1690      76.2064    1426.19019      41.9845      46.8684
   1551.17493     620.7708     429.5288    1426.17493      41.8819      46.9012
   1551.15967     136.7323     106.6007    1426.15967      41.8921      46.9362
   1551.14441      76.9905      66.6819    1426.14441      41.8884      47.0750
   1551.12915      68.4572      61.1632    1426.12915      41.7513      47.0975
   1551.11389      65.3948      59.1596    1426.11389      41.7719      47.2800
   1551.09863      63.8234      58.1498    1426.09863      41.7595      47.4322
   1551.08337      62.7716      57.4266    1426.08337      41.6890      47.4728
   1551.06812      62.2073      56.9208    1426.06812      41.6042      47.5830
   1551.05286      61.4283      56.5278    1426.05286      41.6327      47.6933
   1551.03760      60.9939      56.2586    1426.03760      41.5777      47.7186
   1551.02234      60.5962      56.1234    1426.02234      41.5211      47.8078
   1551.00708      60.2946      55.8024    1426.00708      41.4916      47.9952
   1550.99182      59.9751      55.9241    1425.99182      41.4481      48.0470
   1550.97656      60.6771      56.1177    1425.97656      41.4089      48.1456
   1550.96130      59.5548      55.5859    1425.96130      41.3510      48.2299
   1550.94604      59.4192      55.5327    1425.94604      41.3209      48.3515
   1550.93079      59.3060      55.6743    1425.93079      41.2575      48.3470
   1550.91553      59.2480      55.8104    1425.91553      41.1812      48.4848
   1550.90027      59.2930      55.9252    1425.90027      41.1783      48.6352
   1550.88501      59.3621      56.0749    1425.88501      41.1119      48.6770
   1550.86975      59.7891      56.4088    1425.86975      41.1205      48.8095
   1550.85449      61.7359      57.7961    1425.85449      41.0319      48.9354
   1550.83923      66.1921      60.6293    1425.83923      40.9543      48.9192
   1550.82397      70.4547      63.3294    1425.82397      40.9864      49.0786
   1550.80872      74.7091      65.9071    1425.80872      40.9457      49.1791
   1550.79346      73.6386      65.1228    1425.79346      40.9093      49.3104
   1550.77820      74.8501      66.2987    1425.77820      40.8302      49.3246
   1550.76294      74.8505      66.3719    1425.76294      40.7258      49.4410
   1550.74768      75.3220      66.8345    1425.74768      40.7362      49.5487
   1550.73242      74.8079      66.3462    1425.73242      40.6952      49.7255
   1550.71716      75.0489      66.8463    1425.71716      40.5992      49.6417
   1550.70190      74.6704      66.3703    1425.70190      40.5950      49.8819
   1550.68665      74.2956      66.2217    1425.68665      40.5319      49.9688
   1550.67139      74.2170      66.4731    1425.67139      40.4798      50.0157
   1550.65613      74.6143      66.3926    1425.65613      40.4007      50.0572
   1550.64087      73.5690      65.5167    1425.64087      40.3910      50.2593
   1550.62561      74.5480      66.2079    1425.62561      40.3367      50.3989
   1550.61035      73.5009      65.7282    1425.61035      40.2888      50.4057
   1550.59509      73.8432      65.9683    1425.59509      40.2627      50.4903
   1550.57983      73.2294      65.6324    1425.57983      40.2054      50.6403
   1550.56458      74.3853      66.3919    1425.56458      40.1556      50.6840
   1550.54932      71.7101      64.6802    1425.54932      40.1188      50.7705
   1550.53406      68.9296      62.9854    1425.53406      40.0515      50.8826
   1550.51880      66.4580      61.3450    1425.51880      40.0686      51.0217
   1550.50354      65.6122      60.8023    1425.50354      39.9470      51.0466
   1550.48828      67.6232      61.7973    1425.48828      39.9153      51.1633
   1550.47302      66.1987      61.1536    1425.47302      39.9014      51.2651
   1550.45776      67.2166      61.9350    1425.45776      39.8858      51.3440
   1550.44250      66.9304      61.9604    1425.44250      39.7947      51.4596
   1550.42725      67.0762      62.3286    1425.42725      39.7822      51.5918
   1550.41199      67.0880      62.0253    1425.41199      39.7541      51.7626
   1550.39673      66.7845      62.0281    1425.39673      39.6778      51.7796
   1550.38147      66.4988      61.7101    1425.38147      39.5911      51.8603
   1550.36621      66.5263      61.7363    1425.36621      39.5659      51.9846
   1550.35095      66.4924      61.8661    1425.35095      39.5508      52.1463
   1550.33569      66.6233      61.6495    1425.33569      39.4629      52.0866
   1550.32043      66.6167      61.8878    1425.32043      39.4662      52.3136
   1550.30518      68.2736      64.2945    1425.30518      39.4045      52.3815
   1550.28992      68.6775      65.5664    1425.28992      39.3292      52.4754
   1550.27466      69.2884      66.1204    1425.27466      39.3170      52.5138
   1550.25940      69.0085      65.8318    1425.25940      39.2726      52.6855
   1550.24414      69.3886      66.4942    1425.24414      39.2623      52.7713
   1550.22888      67.5736      64.8207    1425.22888      39.1798      52.9425
   1550.21362      65.3786      63.6524    1425.21362      39.1521      52.9483
   1550.19836      61.8639      61.1443    1425.19836      39.0335      53.0924
   1550.18311      58.0778      57.2439    1425.18311      39.0623      53.1752
   1550.16785      56.7590      55.7747    1425.16785      39.0411      53.3014
   1550.15259      57.0763      56.2588    1425.15259      38.9916      53.3453
   1550.13733      56.8572      56.2804    1425.13733      38.9134      53.5509
   1550.12207      56.9232      56.3211    1425.12207      38.9316      53.6536
   1550.10681      56.7392      56.1627    1425.10681      38.8782      53.6903
   1550.09155      56.8373      56.2766    1425.09155      38.8011      53.7916
   1550.07629      56.6594      56.2668    1425.07629      38.7805      53.8837
   1550.06104      56.6649      56.1213    1425.06104      38.6325      54.1345
   1550.04578      56.8757      56.3006    1425.04578      38.6820      54.1108
   1550.03052      57.1257      56.1874    1425.03052      38.7041      54.2817
   1550.01526     103.4818      69.3673    1425.01526      38.6319      54.2949
   1550.00000      80.7585      62.9472    1425.00000      38.5814      54.4343
   1549.98474      58.0352      56.5271    1424.98474      38.5309      54.5736
   1549.96948      58.8446      56.6926    1424.96948      38.5282      54.7046
   1549.95422      59.2250      56.8780    1424.95422      38.4165      54.7986
   1549.93896      59.2853      56.8955    1424.93896      38.4697      54.9339
   1549.92371      59.0867      56.9043    1424.92371      38.3903      55.0162
   1549.90845      59.1387      57.0226    1424.90845      38.2961      55.0798
   1549.89319      59.1831      57.1399    1424.89319      38.2736      55.2061
   1549.87793      59.3507      57.7669    1424.87793      38.2321      55.3046
   1549.86267      60.3033      59.5488    1424.86267      38.2502      55.4367
   1549.84741      61.4615      61.8204    1424.84741      38.1374      55.5689
   1549.83215      61.4946      62.8469    1424.83215      38.1015      55.7264
   1549.81689      59.8941      62.6542    1424.81689      38.1543      55.7700
   1549.80164      59.3234      62.6986    1424.80164      38.0663      55.7780
   1549.78638      59.4585      63.1171    1424.78638      38.0111      56.0635
   1549.77112      59.4376      63.1590    1424.77112      37.9973      56.1658
   1549.75586      59.0068      62.4062    1424.75586      37.9441      56.2878
   1549.74060      59.4124      63.3476    1424.74060      37.8990      56.4100
   1549.72534      59.2930      63.3462    1424.72534      37.9081      56.4805
   1549.71008      58.9200      62.7180    1424.71008      37.8395      56.6794
   1549.69482      59.3965      63.4751    1424.69482      37.8170      56.7466
   1549.67957      59.2753      63.5576    1424.67957      37.7524      56.8869
   1549.66431      59.5965      64.4518    1424.66431      37.7872      56.9224
   1549.64905      59.6309      64.7825    1424.64905      37.7429      57.2016
   1549.63379      59.2622      64.4588    1424.63379      37.7217      57.2855
   1549.61853      58.6934      63.8974    1424.61853      37.6311      57.2621
   1549.60327      58.6839      64.0112    1424.60327      37.6466      57.3854
   1549.58801      58.4060      63.9493    1424.58801      37.6203      57.5260
   1549.57275      58.2291      63.0950    1424.57275      37.6166      57.6133
   1549.55750      57.1510      60.7405    1424.55750      37.5453      57.8685
   1549.54224      56.4697      59.1185    1424.54224      37.5273      57.9595
   1549.52698      55.9781      57.7570    1424.52698      37.3845      58.1015
   1549.51172      56.8035      57.9767    1424.51172      37.4281      58.3079
   1549.49646      56.8475      57.9226    1424.49646      37.4298      58.2763
   1549.48120      57.2926      57.7577    1424.48120      37.3250      58.4395
   1549.46594      58.6335      58.5875    1424.46594      37.3897      58.5757
   1549.45068      59.9529      58.9604    1424.45068      37.4171      58.7348
   1549.43542      62.0586      59.3925    1424.43542      37.2972      58.8341
   1549.42017      66.1233      61.1809    1424.42017      37.2877      58.9434
   1549.40491      75.6392      63.7319    1424.40491      37.3027      59.0928
   1549.38965     151.9396      89.4535    1424.38965      37.2350      59.2033
   1549.37439     532.4750     217.9126    1424.37439      37.1716      59.2896
   1549.35913     789.5973     309.8190    1424.35913      37.2219      59.4940
   1549.34387     827.5026     327.2128    1424.34387      37.2007      59.6211
   1549.32861     861.6156     335.0874    1424.32861      37.1290      59.7786
   1549.31335     845.5420     333.8105    1424.31335      37.1189      59.8550
   1549.29810     852.6378     337.1153    1424.29810      37.0790      59.9299
   1549.28284     841.8197     332.4529    1424.28284      37.0896      60.0877
   1549.26758     824.1261     324.3472    1424.26758      37.0314      60.2658
   1549.25232     841.4233     332.0018    1424.25232      37.0409      60.3369
   1549.23706     743.2879     295.7411    1424.23706      36.9975      60.5886
   1549.22180     404.8388     177.5442    1424.22180      36.9687      60.6925
   1549.20654     117.0879      81.4047    1424.20654      36.9713      60.8450
   1549.19128      79.0239      69.3059    1424.19128      36.9249      60.9310
   1549.17603     100.3769      76.6538    1424.17603      36.8824      61.0937
   1549.16077     125.2357      85.1469    1424.16077      36.9401      61.2188
   1549.14551     128.1519      86.1397    1424.14551      36.9211      61.3871
   1549.13025     127.0743      85.6140    1424.13025      36.8717      61.4708
   1549.11499     125.4207      85.0579    1424.11499      36.9094      61.6382
   1549.09973     125.0995      83.4321    1424.09973      36.8189      61.7642
   1549.08447     122.4147      80.4961    1424.08447      36.8208      61.9638
   1549.06921     122.6560      80.4211    1424.06921      36.8309      61.9890
   1549.05396     122.8687      80.8613    1424.05396      36.8228      62.2617
   1549.03870     118.4435      79.5674    1424.03870      36.8168      62.2986
   1549.02344      88.9786      70.1756    1424.02344      36.7626      62.4387
   1549.00818      60.7436      60.6648    1424.00818      36.7557      62.6223
   1548.99292      58.6615      60.1858    1423.99292      36.7892      62.7450
   1548.97766      71.7652      64.4189    1423.97766      36.7206      62.8692
   1548.96240      87.6461      69.8658    1423.96240      36.7163      63.0075
   1548.94714      89.9440      70.6507    1423.94714      36.6769      63.2819
   1548.93188      91.1387      70.4288    1423.93188      36.6486      63.3605
   1548.91663      89.8011      69.9536    1423.91663      36.6434      63.4821
   1548.90137      89.5058      70.3749    1423.90137      36.6180      63.6267
   1548.88611      89.7831      71.3789    1423.88611      36.6787      63.8778
   1548.87085      91.9133      72.4036    1423.87085      36.6071      63.9964
   1548.85559      91.2536      71.8336    1423.85559      36.6071      64.0838
   1548.84033      88.1424      71.2053    1423.84033      36.5728      64.1942
   1548.82507      74.6408      66.5439    1423.82507      36.5318      64.3356
   1548.80981      57.3701      60.6442    1423.80981      36.5787      64.5596
   1548.79456      54.3251      59.8775    1423.79456      36.5934      64.5646
   1548.77930      54.8183      59.1826    1423.77930      36.6081      64.8833
   1548.76404      57.0522      59.8796    1423.76404      36.5520      64.9140
   1548.74878      57.4047      60.6422    1423.74878      36.5272      65.0947
   1548.73352      57.8031      61.6174    1423.73352      36.5357      65.2137
   1548.71826      57.7077      61.8004    1423.71826      36.4998      65.4605
   1548.70300      57.5584      61.6226    1423.70300      36.5390      65.5384
   1548.68774      57.5467      61.9171    1423.68774      36.4791      65.7419
   1548.67249      57.7283      62.2613    1423.67249      36.4932      65.7714
   1548.65723      57.3098      61.4746    1423.65723      36.5483      66.0333
   1548.64197      57.4351      62.1038    1423.64197      36.5031      66.2057
   1548.62671      55.5819      60.7697    1423.62671      36.4781      66.2110
   1548.61145      53.2478      59.3792    1423.61145      36.5282      66.4840
   1548.59619      53.0774      59.7406    1423.59619      36.5252      66.6165
   1548.58093      57.0300      61.6684    1423.58093      36.5284      66.5902
   1548.56567      63.8896      64.6500    1423.56567      36.5242      66.9604
   1548.55042      65.6633      65.5870    1423.55042      36.5254      66.9989
   1548.53516      67.1420      66.2617    1423.53516      36.4456      67.1616
   1548.51990      66.8229      67.5123    1423.51990      36.5149      67.3820
   1548.50464      67.1151      67.5761    1423.50464      36.4711      67.4205
   1548.48938      68.4377      72.7226    1423.48938      36.4684      67.5205
   1548.47412      69.2353      74.9105    1423.47412      36.5274      67.7928
   1548.45886      66.7389      67.2894    1423.45886      36.4867      67.9549
   1548.44360      65.4049      64.6129    1423.44360      36.4724      67.9523
   1548.42834      61.9304      63.3160    1423.42834      36.5057      68.1258
   1548.41309      55.5182      60.9601    1423.41309      36.4788      68.2577
   1548.39783      55.8553      61.4373    1423.39783      36.4886      68.4165
   1548.38257      73.9710      68.8189    1423.38257      36.4718      68.6185
   1548.36731     113.0691      84.4943    1423.36731      36.5117      68.6481
   1548.35205     125.5997      89.8624    1423.35205      36.5253      68.9019
   1548.33679     126.8264      90.5226    1423.33679      36.4417      68.9476
   1548.32153     126.7147      90.7343    1423.32153      36.4849      69.1592
   1548.30627     128.8299      93.8343    1423.30627      36.4499      69.3342
   1548.29102     128.8860      96.3676    1423.29102      36.4785      69.3988
   1548.27576     128.5505      96.5367    1423.27576      36.5061      69.5048
   1548.26050     129.0111      97.0910    1423.26050      36.4408      69.5401
   1548.24524     128.9792      97.4384    1423.24524      36.4393      69.8655
   1548.22998     112.7159      90.5040    1423.22998      36.5043      69.9739
   1548.21472      75.2389      75.4045    1423.21472      36.4897      70.0785
   1548.19946      68.5336      71.9131    1423.19946      36.4653      70.2584
   1548.18420     123.6855      91.1615    1423.18420      36.4957      70.3468
   1548.16895     274.5238     149.0610    1423.16895      36.5091      70.5166
   1548.15369     333.9725     171.3629    1423.15369      36.5368      70.5705
   1548.13843     338.1683     173.1512    1423.13843      36.4766      70.7724
   1548.12317     336.1027     174.4005    1423.12317      36.4492      70.8473
   1548.10791     336.2501     175.3281    1423.10791      36.5321      71.0256
   1548.09265     338.3755     178.0945    1423.09265      36.5599      71.1134
   1548.07739     334.7144     177.5530    1423.07739      36.5161      71.2402
   1548.06213     340.9431     179.6702    1423.06213      36.5622      71.4744
   1548.04688     336.1678     179.7284    1423.04688      36.5887      71.5719
   1548.03162     281.9580     159.5744    1423.03162      36.5726      71.6926
   1548.01636     140.3765     108.2689    1423.01636      36.6004      71.8469
   1548.00110     104.6707     118.1309    1423.00110      36.5975      72.0216
   1547.98584     234.1117     194.5305    1422.98584      36.6434      72.0604
   1547.97058     742.2652     645.1024    1422.97058      36.6786      72.1708
   1547.95532     883.0053     561.9062    1422.95532      36.5749      72.2172
   1547.94006     994.0405     924.7177    1422.94006      36.6541      72.4409
   1547.92480     889.4636     599.8018    1422.92480      36.6469      72.5003
   1547.90955     834.0583     413.6765    1422.90955      36.6463      72.6124
   1547.89429     818.6760     392.1976    1422.89429      36.6903      72.8045
   1547.87903     833.7244     404.8360    1422.87903      36.6916      72.9007
   1547.86377     816.5435     394.2568    1422.86377      36.7098      72.9896
   1547.84851     787.7665     390.5010    1422.84851      36.6947      73.1795
   1547.83325     705.7819     367.1978    1422.83325      36.7207      73.3116
   1547.81799     405.2471     511.2540    1422.81799      36.7553      73.3208
   1547.80273     179.3855     320.6986    1422.80273      36.7584      73.4785
   1547.78748     145.1455     121.3535    1422.78748      36.7394      73.6416
   1547.77222     375.5834     219.5601    1422.77222      36.7719      73.7294
   1547.75696     504.4511     279.4599    1422.75696      36.8204      73.7597
   1547.74170     518.5090     287.5830    1422.74170      36.8389      73.8366
   1547.72644     530.3727     289.9476    1422.72644      36.7878      74.0364
   1547.71118     514.9399     288.9109    1422.71118      36.8339      74.2521
   1547.69592     520.7364     285.5776    1422.69592      36.9200      74.1896
   1547.68066     507.0486     285.1643    1422.68066      36.8850      74.2722
   1547.66541     523.6347     287.1826    1422.66541      36.9213      74.2827
   1547.65015     497.0727     264.8877    1422.65015      36.8797      74.5769
   1547.63489     433.7968     236.4512    1422.63489      36.9444      74.6639
   1547.61963     222.9732     146.2330    1422.61963      36.9745      74.6599
   1547.60437      91.7819      91.7580    1422.60437      36.9783      74.8235
   1547.58911     116.1571     104.9444    1422.58911      36.9027      74.9199
   1547.57385     316.8602     197.1816    1422.57385      37.0295      75.0476
   1547.55859     476.7123     274.3636    1422.55859      37.1348      75.0500
   1547.54333     492.4957     285.7245    1422.54333      37.0598      75.1639
   1547.52808     493.9613     288.9623    1422.52808      37.0583      75.3331
   1547.51282     492.3526     290.2968    1422.51282      37.1046      75.2940
   1547.49756     496.2514     288.6681    1422.49756      37.0407      75.3336
   1547.48230     490.5889     284.3588    1422.48230      37.0728      75.5182
   1547.46704     494.0123     291.1541    1422.46704      37.1794      75.6188
   1547.45178     493.1552     298.4800    1422.45178      37.1669      75.6476
   1547.43652     451.0117     279.6710    1422.43652      37.2457      75.6964
   1547.42126     236.4761     177.7083    1422.42126      37.2236      75.7839
   1547.40601      85.6398     104.3543    1422.40601      37.2066      75.8424
   1547.39075      66.1108      95.0481    1422.39075      37.2755      75.9061
   1547.37549      65.5107      93.6064    1422.37549      37.2748      75.9939
   1547.36023      66.8005      95.9331    1422.36023      37.2862      76.0000
   1547.34497      64.7107      89.6997    1422.34497      37.3243      76.1307
   1547.32971      63.3784      86.2147    1422.32971      37.3771      76.1467
   1547.31445      62.8256      86.5501    1422.31445      37.4046      76.2771
   1547.29919      62.0907      85.2783    1422.29919      37.3566      76.2650
   1547.28394      61.6750      84.7326    1422.28394      37.4284      76.2834
   1547.26868      61.0956      84.3438    1422.26868      37.4502      76.5234
   1547.25342      60.3129      81.2854    1422.25342      37.4641      76.5770
   1547.23816      58.7498      77.6695    1422.23816      37.4877      76.4507
   1547.22290      54.7441      73.3221    1422.22290      37.5285      76.5296
   1547.20764      51.3284      70.9429    1422.20764      37.5747      76.5753
   1547.19238      52.0063      71.3266    1422.19238      37.6074      76.5868
   1547.17712      59.2331      74.7732    1422.17712      37.6416      76.7041
   1547.16187      67.4114      78.9793    1422.16187      37.6377      76.7481
   1547.14661      68.7613      79.8211    1422.14661      37.6346      76.6769
   1547.13135      69.1003      80.0308    1422.13135      37.6651      76.6769
   1547.11609      68.6113      79.9794    1422.11609      37.7328      76.8067
   1547.10083      68.7898      79.9810    1422.10083      37.7468      76.8348
   1547.08557      68.7809      80.1351    1422.08557      37.8059      76.8266
   1547.07031      69.5885      80.7225    1422.07031      37.7838      76.9860
   1547.05505      69.4330      80.7989    1422.05505      37.8275      76.9436
   1547.03979      68.9242      80.6523    1422.03979      37.8371      76.9793
   1547.02454      62.7718      77.7725    1422.02454      37.8907      76.9709
   1547.00928      57.5834      75.4014    1422.00928      37.9053      77.0447
   1546.99402      72.5919      84.1256    1421.99402      37.9128      76.8710
   1546.97876     201.4652     156.5529    1421.97876      37.8902      76.9950
   1546.96350     386.4995     261.8991    1421.96350      37.9993      77.0240
   1546.94824     424.5182     285.5902    1421.94824      38.0216      76.9001
   1546.93298     428.4509     287.1753    1421.93298      38.0749      77.0052
   1546.91772     427.1452     288.1227    1421.91772      38.0822      77.0216
   1546.90247     432.4829     290.6989    1421.90247      38.0643      76.9825
   1546.88721     426.0897     289.6149    1421.88721      38.1512      77.0315
   1546.87195     426.1567     292.6927    1421.87195      38.2407      77.0097
   1546.85669     423.9371     293.6134    1421.85669      38.2308      77.0100
   1546.84143     413.6501     297.7721    1421.84143      38.2253      76.9051
   1546.82617     295.0705     294.9958    1421.82617      38.2760      76.8521
   1546.81091     156.8874     367.3403    1421.81091      38.2724      77.0511
   1546.79565      80.7114     140.6062    1421.79565      38.2679      76.9297
   1546.78040     117.7176     129.2135    1421.78040      38.4392      76.9198
   1546.76514     202.8923     173.8358    1421.76514      38.4884      76.8213
   1546.74988     228.6295     198.0991    1421.74988      38.4502      76.8216
   1546.73462     227.9012     187.3490    1421.73462      38.4687      76.8450
   1546.71936     226.1579     181.4600    1421.71936      38.5021      76.7410
   1546.70410     226.7476     182.2501    1421.70410      38.5223      76.8571
   1546.68884     226.0328     182.1180    1421.68884      38.6303      76.7095
   1546.67358     224.1394     181.1602    1421.67358      38.6263      76.7441
   1546.65833     223.0666     176.5759    1421.65833      38.6524      76.6885
   1546.64307     217.5733     170.8067    1421.64307      38.7288      76.6319
   1546.62781     165.2877     139.7566    1421.62781      38.7186      76.5696
   1546.61255      84.7270      93.9362    1421.61255      38.6578      76.4401
   1546.59729      76.5937      89.6501    1421.59729      38.7230      76.5277
   1546.58203     206.5619     163.2345    1421.58203      38.8412      76.4199
   1546.56677     485.5854     322.9983    1421.56677      38.8466      76.3613
   1546.55151     573.0398     373.3874    1421.55151      38.8707      76.3546
   1546.53625     583.7758     380.8623    1421.53625      38.8912      76.2044
   1546.52100     577.6693     378.3723    1421.52100      38.9677      76.2716
   1546.50574     587.0517     384.2497    1421.50574      38.9905      76.2123
   1546.49048     584.2806     383.8062    1421.49048      39.0209      76.1399
   1546.47522     576.5049     380.3017    1421.47522      39.0358      75.8716
   1546.45996     570.0796     379.1862    1421.45996      39.0666      76.0398
   1546.44470     567.4995     382.5361    1421.44470      39.1160      75.9686
   1546.42944     422.6192     295.6704    1421.42944      39.1275      75.8660
   1546.41418     147.9917     135.5271    1421.41418      39.1735      75.6874
   1546.39893      66.0543      90.3199    1421.39893      39.1865      75.6372
   1546.38367      57.6795      88.8805    1421.38367      39.2453      75.6429
   1546.36841      55.0732      89.3735    1421.36841      39.3299      75.5436
   1546.35315      52.9667      86.0527    1421.35315      39.3581      75.4057
   1546.33789      52.5806      87.8836    1421.33789      39.3430      75.4044
   1546.32263      51.6684      84.7691    1421.32263      39.4580      75.3559
   1546.30737      52.2819      85.2438    1421.30737      39.4632      75.2426
   1546.29211      56.3769      88.0302    1421.29211      39.4961      75.1182
   1546.27686     170.4937     147.8274    1421.27686      39.4610      75.0155
   1546.26160      68.6931      88.2410    1421.26160      39.5011      74.8371
   1546.24634      52.3677      82.2893    1421.24634      39.5880      74.7741
   1546.23108      51.1764      85.3032    1421.23108      39.5866      74.7926
   1546.21582      50.8587      86.3439    1421.21582      39.7029      74.6608
   1546.20056      50.2941      84.2920    1421.20056      39.6609      74.4769
   1546.18530      51.3544      86.5279    1421.18530      39.7089      74.4210
   1546.17004      49.8704      84.8812    1421.17004      39.7479      74.2155
   1546.15479      49.4979      83.3330    1421.15479      39.7835      74.0826
   1546.13953      49.8818      84.6105    1421.13953      39.7920      74.1458
   1546.12427      48.9515      79.8764    1421.12427      39.8482      73.9884
   1546.10901      48.8455      77.7030    1421.10901      39.8923      73.8858
   1546.09375      51.2875      80.5746    1421.09375      39.9360      73.7585
   1546.07849     121.1136     129.6086    1421.07849      39.9194      73.5390
   1546.06323     139.2128     150.7455    1421.06323      40.0033      73.4282
   1546.04797      69.2043     102.4211    1421.04797      39.9774      73.3526
   1546.03271      61.1559      88.4266    1421.03271      40.0521      73.1893
   1546.01746     178.2567     158.1944    1421.01746      40.0561      73.1284
   1546.00220     204.7563     193.6631    1421.00220      40.0767      72.9030
   1545.98694     294.1862     232.9684    1420.98694      40.1529      72.7186
   1545.97168      54.9722      81.6849    1420.97168      40.1336      72.6948
   1545.95642      60.7744      82.9742    1420.95642      40.2509      72.6497
   1545.94116     324.0253     244.4559    1420.94116      40.2670      72.4180
   1545.92590      92.8653     101.8949    1420.92590      40.2758      72.3218
   1545.91064     143.8746     133.2647    1420.91064      40.2881      72.1438
   1545.89539      84.8404      97.5358    1420.89539      40.3506      72.0001
   1545.88013     213.2502     180.3316    1420.88013      40.3298      71.8894
   1545.86487     275.3576     216.9334    1420.86487      40.4123      71.7277
   1545.84961     122.6715     164.1289    1420.84961      40.4347      71.6557
   1545.83435     252.2431     326.5693    1420.83435      40.4333      71.5288
   1545.81909      60.5404      83.8742    1420.81909      40.5044      71.3441
   1545.80383      68.2890      87.9275    1420.80383      40.5507      71.2373
   1545.78857     143.1178     137.6280    1420.78857      40.5430      70.9979
   1545.77332     498.1282     374.9566    1420.77332      40.6295      70.9289
   1545.75806     705.6879     516.2868    1420.75806      40.6583      70.8121
   1545.74280     752.7259     541.8519    1420.74280      40.6291      70.6927
   1545.72754     744.1054     539.4016    1420.72754      40.7337      70.4774
   1545.71228     749.0157     539.8341    1420.71228      40.8185      70.4064
   1545.69702     754.2981     543.1527    1420.69702      40.7717      70.2724
   1545.68176     734.4842     534.6552    1420.68176      40.8270      70.0917
   1545.66650     734.3388     541.1205    1420.66650      40.9026      69.9663
   1545.65125     734.6564     534.8870    1420.65125      40.9214      69.7288
   1545.63599     640.9448     477.1317    1420.63599      40.9262      69.7018
   1545.62073     331.6016     266.8066    1420.62073      40.9518      69.5907
   1545.60547      94.2701     105.5347    1420.60547      41.1633      69.4642
   1545.59021      60.3569      82.7364    1420.59021      41.1902      69.4071
   1545.57495      54.2849      78.6378    1420.57495      41.3178      69.4272
   1545.55969      51.4175      76.8397    1420.55969      41.4832      69.4061
   1545.54443      49.8061      75.6583    1420.54443      41.6731      69.5772
   1545.52917      48.7125      74.8829    1420.52917      41.8586      69.7753
   1545.51392      48.0192      74.4025    1420.51392      42.1382      70.0154
   1545.49866      47.5079      74.1948    1420.49866      42.4700      70.3651
   1545.48340      47.0405      73.9465    1420.48340      42.8952      70.7911
   1545.46814      46.7654      73.7676    1420.46814      43.4273      71.4505
   1545.45288      46.5301      73.5571    1420.45288      44.1605      72.7028
   1545.43762      46.4067      73.4199    1420.43762      45.2879      74.2605
   1545.42236      46.2758      73.4279    1420.42236      46.6738      76.4171
   1545.40710      46.2986      73.4594    1420.40710      48.7261      79.5150
   1545.39185      46.6301      73.6048    1420.39185      52.0215      84.8004
   1545.37659      46.7811      73.8080    1420.37659      56.6879      92.4789
   1545.36133      47.2160      74.0523    1420.36133      63.6802     103.8411
   1545.34607      47.7165      74.5321    1420.34607      76.6670     125.0449
   1545.33081      50.1103      76.1856    1420.33081      97.7882     159.6660
   1545.31555      69.9212      90.0237    1420.31555     117.4083     191.7132
   1545.30029     163.5847     154.8849    1420.30029     127.0765     207.4964
   1545.28503     120.8324     177.2925    1420.28503     123.8088     201.0376
   1545.26978      49.3595      76.1387    1420.26978     107.0821     172.8371
   1545.25452      48.1391      74.8600    1420.25452      85.6391     137.4281
   1545.23926      48.3182      74.8779    1420.23926      69.2214     110.5367
   1545.22400      50.2912      76.3615    1420.22400      58.2683      92.1903
   1545.20874     111.3307     119.3448    1420.20874      51.0009      80.2923
   1545.19348      99.8374     139.3125    1420.19348      46.7646      72.8928
   1545.17822     141.8364     140.9354    1420.17822      44.3861      68.7433
   1545.16296      90.7362     104.8527    1420.16296      42.8910      66.3329
   1545.14771      55.1703      79.7446    1420.14771      42.2107      64.9029
   1545.13245      58.2351      81.9488    1420.13245      41.7059      63.9157
   1545.11719     122.4884     127.6131    1420.11719      41.4675      63.1867
   1545.10193     187.0218     173.1050    1420.10193      41.1986      62.7842
   1545.08667     328.1457     276.1798    1420.08667      41.0661      62.3403
   1545.07141     478.5451     386.6555    1420.07141      41.0294      62.0162
   1545.05615     271.8220     237.6779    1420.05615      40.9531      61.6817
   1545.04089      89.6730     108.5171    1420.04089      40.9551      61.3770
   1545.02563     174.2745     217.6833    1420.02563      40.8732      61.0117
   1545.01038      94.6505     129.1224    1420.01038      40.8247      60.8896
   1544.99512      51.7870      78.5103    1419.99512      40.7616      60.6224
   1544.97986      48.0769      74.7320    1419.97986      40.6930      60.3111
   1544.96460      46.5918      73.5200    1419.96460      40.6206      60.1049
   1544.94934      45.9812      72.8102    1419.94934      40.5790      59.8031
   1544.93408      45.4813      72.4770    1419.93408      40.5600      59.5026
   1544.91882      45.1632      72.1261    1419.91882      40.4917      59.1591
   1544.90356      44.8921      71.8780    1419.90356      40.4608      59.0327
   1544.88831      44.7199      71.5321    1419.88831      40.4608      58.7346
   1544.87305      44.6030      71.4791    1419.87305      40.3292      58.4263
   1544.85779      44.3824      71.2241    1419.85779      40.3507      58.1860
   1544.84253      44.2772      71.0158    1419.84253      40.2632      57.8476
   1544.82727      44.1799      70.9043    1419.82727      40.2364      57.6162
   1544.81201      44.0816      70.9462    1419.81201      40.1405      57.3770
   1544.79675      43.9952      70.5546    1419.79675      40.0896      57.1747
   1544.78149      43.9440      70.5980    1419.78149      39.9816      56.8502
   1544.76624      43.8398      70.5501    1419.76624      39.9949      56.6025
   1544.75098      43.7502      70.2894    1419.75098      39.9010      56.2923
   1544.73572      43.6691      70.1364    1419.73572      39.9127      56.0722
   1544.72046      43.6080      70.0441    1419.72046      39.8317      55.8155
   1544.70520      43.5533      69.8609    1419.70520      39.7672      55.5371
   1544.68994      43.4258      69.7017    1419.68994      39.7128      55.1690
   1544.67468      43.4375      69.7285    1419.67468      39.6678      54.9489
   1544.65942      43.3844      69.6321    1419.65942      39.5690      54.6833
   1544.64417      43.3298      69.4081    1419.64417      39.4999      54.3966
   1544.62891      43.5167      69.4392    1419.62891      39.5085      54.2104
   1544.61365      43.6545      70.0772    1419.61365      39.3780      53.9417
   1544.59839      43.7017      70.0326    1419.59839      39.3082      53.6093
   1544.58313      43.9740      70.6521    1419.58313      39.1732      53.3492
   1544.56787      44.0289      70.7169    1419.56787      39.1675      53.1623
   1544.55261      43.8758      70.6166    1419.55261      39.0596      52.8443
   1544.53735      43.9437      70.4002    1419.53735      38.9928      52.5939
   1544.52209      44.0313      70.5864    1419.52209      38.9177      52.2768
   1544.50684      47.0843      76.8565    1419.50684      38.8685      52.0336
   1544.49158      43.9806      70.1858    1419.49158      38.7541      51.7432
   1544.47632      42.8180      68.2789    1419.47632      38.6677      51.4719
   1544.46106      42.6988      67.9236    1419.46106      38.5734      51.2011
   1544.44580      42.4840      67.6123    1419.44580      38.4695      50.9505
   1544.43054      42.3540      67.2784    1419.43054      38.4012      50.6425
   1544.41528      42.2485      67.1741    1419.41528      38.3426      50.3500
   1544.40002      42.1684      66.8808    1419.40002      38.2342      50.0581
   1544.38477      42.2747      67.0276    1419.38477      38.1262      49.7615
   1544.36951      41.8945      66.3839    1419.36951      37.9727      49.5536
   1544.35425      41.8536      66.2089    1419.35425      37.9090      49.2730
   1544.33899      41.6352      65.9050    1419.33899      37.8697      48.9838
   1544.32373      41.6395      65.7942    1419.32373      37.7893      48.7228
   1544.30847      41.5591      65.5945    1419.30847      37.6363      48.4380
   1544.29321      41.4521      65.4295    1419.29321      37.5714      48.1485
   1544.27795      41.7044      65.6832    1419.27795      37.4386      47.8976
   1544.26270      42.8378      67.8731    1419.26270      37.3562      47.5833
   1544.24744      43.4741      68.6461    1419.24744      37.2372      47.2770
   1544.23218      43.8653      69.3329    1419.23218      37.1182      47.0663
   1544.21692      44.1761      69.9527    1419.21692      37.0505      46.6948
   1544.20166      44.6574      70.2069    1419.20166      36.8887      46.4403
   1544.18640      45.1166      70.7259    1419.18640      36.7528      46.1054
   1544.17114      45.7923      72.1388    1419.17114      36.6405      45.9107
   1544.15588      46.3528      73.0843    1419.15588      36.5225      45.5827
   1544.14062      53.9718      87.4345    1419.14062      36.4714      45.3647
   1544.12537      59.6373      97.3608    1419.12537      36.3166      45.0232
   1544.11011      57.4160      93.7337    1419.11011      36.2086      44.7877
   1544.09485      56.6998      93.3274    1419.09485      36.0950      44.4465
   1544.07959      57.7383      94.5254    1419.07959      35.9003      44.1806
   1544.06433      60.8085     101.5305    1419.06433      35.7579      43.9257
   1544.04907      48.6657      80.4766    1419.04907      35.6669      43.6733
   1544.03381      40.6003      63.4156    1419.03381      35.5319      43.2951
   1544.01855      39.8789      61.9223    1419.01855      35.4065      43.0254
   1544.00330      39.5161      61.1964    1419.00330      35.2285      42.8384
   1543.98804      39.3569      60.8659    1418.98804      35.1039      42.4581
   1543.97278      39.1420      60.4324    1418.97278      35.0535      42.2257
   1543.95752      38.9426      60.0431    1418.95752      34.8558      41.9467
   1543.94226      38.7700      59.7057    1418.94226      34.6982      41.6361
   1543.92700      38.5964      59.5222    1418.92700      34.5270      41.4088
   1543.91174      38.4862      59.2623    1418.91174      34.3882      41.1119
   1543.89648      38.3231      58.7942    1418.89648      34.3061      40.8227
   1543.88123      38.1624      58.5405    1418.88123      34.1205      40.5961
   1543.86597      38.0504      58.2416    1418.86597      33.9946      40.2222
   1543.85071      37.9083      57.9539    1418.85071      33.8163      39.8979
   1543.83545      37.7296      57.7106    1418.83545      33.6791      39.6873
   1543.82019      37.5832      57.3433    1418.82019      33.5495      39.3804
   1543.80493      37.3806      57.0074    1418.80493      33.3926      39.1322
   1543.78967      37.2837      56.7831    1418.78967      33.1925      38.9191
   1543.77441      37.1266      56.4340    1418.77441      33.1025      38.5341
   1543.75916      37.0020      56.0808    1418.75916      32.9200      38.2956
   1543.74390      36.7708      55.7734    1418.74390      32.7556      38.0815
   1543.72864      36.6283      55.4173    1418.72864      32.6254      37.7979
   1543.71338      36.4569      55.1631    1418.71338      32.4594      37.5007
   1543.69812      36.3459      54.9227    1418.69812      32.3348      37.2449
   1543.68286      36.2197      54.5168    1418.68286      32.1302      37.0478
   1543.66760      36.0105      54.3194    1418.66760      31.9346      36.7142
   1543.65234      35.9178      53.8556    1418.65234      31.8345      36.4281
   1543.63708      35.6155      53.5632    1418.63708      31.6471      36.1642
   1543.62183      35.4599      53.2914    1418.62183      31.5137      35.8419
   1543.60657      35.3300      52.9367    1418.60657      31.3165      35.5805
   1543.59131      35.1820      52.6594    1418.59131      31.1608      35.4311
   1543.57605      34.9597      52.3661    1418.57605      30.9648      35.0833
   1543.56079      34.8246      51.9934    1418.56079      30.8579      34.8321
   1543.54553      34.7168      51.7140    1418.54553      30.6513      34.5867
   1543.53027      34.5755      51.3626    1418.53027      30.4991      34.3497
   1543.51501      34.4095      51.0047    1418.51501      30.3308      34.0838
   1543.49976      34.2217      50.7603    1418.49976      30.1372      33.9023
   1543.48450      34.0901      50.5135    1418.48450      30.0195      33.5583
   1543.46924      34.0061      50.2393    1418.46924      29.7682      33.3518
   1543.45398      33.8317      49.8532    1418.45398      29.6811      33.1214
   1543.43872      33.7262      49.6029    1418.43872      29.4900      32.8242
   1543.42346      33.6750      49.4170    1418.42346      29.2694      32.6029
   1543.40820      33.7060      49.2153    1418.40820      29.1055      32.3590
   1543.39294      34.7570      49.8982    1418.39294      28.9607      32.1594
   1543.37769      42.8059      56.1670    1418.37769      28.7825      31.8779
   1543.36243      52.2858      63.6230    1418.36243      28.6078      31.6689
   1543.34717      53.7364      64.4524    1418.34717      28.4145      31.4237
   1543.33191      53.6426      64.2276    1418.33191      28.2033      31.1820
   1543.31665      53.1825      63.7172    1418.31665      28.0669      30.9867
   1543.30139      53.3086      63.4475    1418.30139      27.9263      30.7403
   1543.28613      52.6043      62.7679    1418.28613      27.7280      30.5325
   1543.27087      52.3500      62.3868    1418.27087      27.5777      30.2731
   1543.25562      52.1115      62.0766    1418.25562      27.4213      30.0504
   1543.24036      51.0458      60.7723    1418.24036      27.2717      29.8399
   1543.22510      43.3788      54.5642    1418.22510      27.0707      29.5988
   1543.20984      34.3771      47.4926    1418.20984      26.9409      29.4395
   1543.19458      34.3195      47.5458    1418.19458      26.7221      29.1791
   1543.17932      66.5663      76.6710    1418.17932      26.5539      28.9903
   1543.16406      83.9756      91.6956    1418.16406      26.4219      28.7726
   1543.14880      35.3593      48.1619    1418.14880      26.2304      28.6040
   1543.13354      32.8353      45.6481    1418.13354      26.0660      28.3993
   1543.11829      33.3904      46.1057    1418.11829      25.9198      28.2101
   1543.10303      41.6174      53.2152    1418.10303      25.7483      28.0143
   1543.08777     122.3328     124.7295    1418.08777      25.6008      27.8446
   1543.07251     130.0109     130.3887    1418.07251      25.4419      27.6215
   1543.05725     126.7573     127.6926    1418.05725      25.2776      27.4447
   1543.04199      61.7047      70.0530    1418.04199      25.0911      27.2112
   1543.02673      33.0733      44.7726    1418.02673      24.9580      27.0638
   1543.01147      30.8906      42.7867    1418.01147      24.7868      26.8851
   1542.99622      29.8831      41.7526    1417.99622      24.6121      26.7339
