#     FILENAME=!/raid/scratch/cyborg/SkynetData/Skynet_60333_barnard_33-nb_107271/Cyborg/Skynet_60333_barnard_33-nb_107271_56634.cyb.fits
#     BASENAME=Skynet_60333_barnard_33-nb_107271_56634
#      CONTROL=SKYNET
#     PROJCODE=Skynet_60333_barnard_33-nb_107271
#     DATAROOT=/raid/scratch/cyborg/SkynetData
#      DATADIR=Skynet_60333_barnard_33-nb_107271/Cyborg
#     SCANNAME=2019_06_26_10
#     SRC_NAME=barnard_33-nb
#     OBSERVER=socamrad_21318
#     DATE_OBS=2024-01-24T03:19:52.000
#        OBSID=107271
#      SCANNUM=56634
#          MJD=60333.1408
#          UTC=12168
#     SCANTYPE=ralongmap
#     DATAMODE=HIRES
#     RECEIVER=Rx1_2
#     TUNEFREQ=1406.2600
# Actual_FREQ1=1421.8850
# Actual_FREQ2=1406.2600
#    LO1Tuning=6856.260
#     RFFILTER=1355_1435
#        OBSBW=-15.6250
#        NCHAN=1024 
#    STARTCHAN=51 
#     STOPCHAN=972 
#         TAVE=0.1470
#         TBIN=0.00000000
#       ACCLEN=0.00000000
#        FOCUS=37.0489
#       RA,DEC=05:32:14.91, -04:40:06.56 
#      RA(hrs)=5.537480
#     DEC(deg)=-4.668490
#    AZIM(deg)=193.492
#    ELEV(deg)=45.838
#     COORDREF=RA_DEC_
#         HREF=85.245400
#         VREF=-2.458300
#      RADESYS=FK5
#       OFFSYS=AZEL
#      EQUINOX=2000.00
#     IFATTENS=11.00, 12.00
#   BALANCELEV=1.200
#   POWER_XLYR=1.724, 2.231
#       VELDEF=RADI-OBS
#     VELOCITY=0.000
#         NPOL=2
#      POLMODE=Linear
#      POLTYPE=
#      WARNING=None
#     CRYOTEMP=289
#      BOXTEMP=23
#     NOISECAL=HI
#       PRECAL=2
#      POSTCAL=2
#    TCAL_XL1=9.1665
#    TCAL_YR1=10.0295
#    TCAL_XL2=9.1530
#    TCAL_YR2=9.9400
#     TRX_XL1=7.4595
#     TRX_YR1=7.4595
#     TRX_XL2=8.0030
#     TRX_YR2=8.0030
#Freq1(MHz)          XL1          YR1  Freq2(MHz)          XL2          YR2 
   1429.69750     120.0478     128.2220   1414.07250     156.2025     194.5761
   1429.68224     120.0640     127.7508   1414.05724     155.9914     194.3284
   1429.66698     119.8621     127.3918   1414.04198     155.4381     193.7336
   1429.65172     119.8229     126.9570   1414.02672     155.2449     193.5123
   1429.63646     119.7581     126.4447   1414.01146     154.9590     193.1393
   1429.62121     119.7647     126.0176   1413.99621     154.7543     192.8947
   1429.60595     119.7494     125.7510   1413.98095     154.4958     192.2308
   1429.59069     119.7635     125.3554   1413.96569     153.9995     192.4154
   1429.57543     119.8484     125.0763   1413.95043     153.8198     191.9332
   1429.56017     119.8921     124.8370   1413.93517     153.6265     191.6843
   1429.54491     119.9750     124.5342   1413.91991     153.5585     191.7299
   1429.52965     119.9559     124.2965   1413.90465     153.4490     191.6378
   1429.51439     120.0548     124.0000   1413.88939     153.2341     191.5526
   1429.49914     120.1164     123.7668   1413.87414     153.2574     191.6043
   1429.48388     120.3400     123.5795   1413.85888     153.2189     191.4385
   1429.46862     120.4049     123.2579   1413.84362     153.0334     191.3413
   1429.45336     120.5319     122.9751   1413.82836     152.9419     191.1970
   1429.43810     120.6921     122.9244   1413.81310     152.9412     191.1284
   1429.42284     121.0073     122.7271   1413.79784     153.1531     191.3583
   1429.40758     121.1632     122.6012   1413.78258     152.8387     191.5171
   1429.39232     121.3209     122.5417   1413.76732     153.0090     191.5918
   1429.37707     121.5346     122.4135   1413.75207     153.1275     191.6025
   1429.36181     121.8546     122.3130   1413.73681     153.2886     191.8405
   1429.34655     122.2024     122.3408   1413.72155     153.3639     191.9306
   1429.33129     122.4676     122.2844   1413.70629     153.5138     192.1312
   1429.31603     122.6885     122.0353   1413.69103     153.5925     192.3926
   1429.30077     122.9294     122.2214   1413.67577     153.7246     192.8456
   1429.28551     123.2993     122.1348   1413.66051     153.9603     193.1262
   1429.27025     123.6955     122.1991   1413.64525     154.1569     193.4878
   1429.25500     123.9267     122.2254   1413.63000     154.4304     193.7341
   1429.23974     124.2965     122.2263   1413.61474     154.7059     194.1350
   1429.22448     124.8759     122.3936   1413.59948     155.0379     194.7594
   1429.20922     125.0998     122.5832   1413.58422     155.3717     195.2325
   1429.19396     125.5546     122.6067   1413.56896     155.4446     195.0895
   1429.17870     126.0982     122.7380   1413.55370     156.0273     196.0372
   1429.16344     126.4571     122.9811   1413.53844     156.3182     196.6889
   1429.14818     126.8659     123.0102   1413.52318     156.5535     196.9929
   1429.13292     127.3358     123.1589   1413.50792     156.9825     197.7036
   1429.11767     127.9000     123.3687   1413.49267     157.4839     198.3047
   1429.10241     128.2496     123.5817   1413.47741     157.8995     198.7899
   1429.08715     128.9207     123.7466   1413.46215     158.3864     199.4863
   1429.07189     129.3602     124.0551   1413.44689     159.0957     200.2349
   1429.05663     129.8879     124.4017   1413.43163     159.4094     200.5706
   1429.04137     130.4543     124.6173   1413.41637     159.8414     201.5843
   1429.02611     130.9915     124.7628   1413.40111     160.5584     202.4961
   1429.01085     131.6063     125.1475   1413.38585     160.9162     203.1235
   1428.99560     132.0077     125.4438   1413.37060     161.5036     203.9211
   1428.98034     132.7402     125.7609   1413.35534     162.1844     204.6399
   1428.96508     133.2273     126.3199   1413.34008     162.8501     205.8154
   1428.94982     133.9311     126.5186   1413.32482     163.4024     206.6243
   1428.93456     134.5844     126.8789   1413.30956     164.0772     207.3255
   1428.91930     135.1791     127.2469   1413.29430     164.7231     208.5508
   1428.90404     135.8415     127.6983   1413.27904     165.5061     209.2840
   1428.88878     136.4285     128.1451   1413.26378     165.9520     210.3932
   1428.87353     136.9114     128.6020   1413.24853     166.6973     211.1814
   1428.85827     137.5367     128.8907   1413.23327     167.5917     212.1865
   1428.84301     138.3969     129.2641   1413.21801     168.4481     213.2335
   1428.82775     139.0714     129.9101   1413.20275     168.9766     214.2081
   1428.81249     139.7911     130.3617   1413.18749     169.8015     215.2023
   1428.79723     140.4765     130.8837   1413.17223     170.6475     216.2682
   1428.78197     141.1696     131.4412   1413.15697     171.1260     217.4776
   1428.76671     141.8816     131.7645   1413.14171     172.0636     218.3713
   1428.75146     142.5985     132.4558   1413.12646     173.1897     219.6142
   1428.73620     143.3925     133.0146   1413.11120     173.9052     220.6236
   1428.72094     144.1935     133.5876   1413.09594     174.6203     222.0628
   1428.70568     144.8136     134.0283   1413.08068     175.4508     223.1640
   1428.69042     145.4848     134.5166   1413.06542     176.3756     224.0668
   1428.67516     146.3787     135.1018   1413.05016     177.1397     225.6388
   1428.65990     147.0055     135.7356   1413.03490     178.2252     226.5298
   1428.64464     147.9077     136.4337   1413.01964     179.0369     227.9186
   1428.62938     148.6890     136.8631   1413.00438     179.9359     228.9210
   1428.61413     149.3322     137.6039   1412.98913     181.0299     230.4789
   1428.59887     150.2534     138.1351   1412.97387     181.8732     231.9084
   1428.58361     151.0772     139.0100   1412.95861     182.8742     232.7829
   1428.56835     151.7468     139.7842   1412.94335     183.8286     234.3549
   1428.55309     152.5315     140.3204   1412.92809     184.6022     235.5540
   1428.53783     153.3513     140.8924   1412.91283     185.8638     236.9092
   1428.52257     154.0326     141.5636   1412.89757     186.9543     238.2718
   1428.50731     155.0244     142.3428   1412.88231     187.8984     239.4124
   1428.49206     155.8798     143.1651   1412.86706     188.7902     241.0884
   1428.47680     156.6117     143.8091   1412.85180     190.0040     242.2864
   1428.46154     157.4746     144.3147   1412.83654     190.9906     243.8102
   1428.44628     158.1272     145.2490   1412.82128     191.7365     245.2401
   1428.43102     159.0310     145.9650   1412.80602     193.1273     246.5116
   1428.41576     159.8800     146.6096   1412.79076     194.0328     247.5956
   1428.40050     160.6480     147.2540   1412.77550     195.1012     249.2336
   1428.38524     161.4724     148.1996   1412.76024     196.1644     250.4508
   1428.36999     162.3244     148.8105   1412.74499     196.8783     251.8220
   1428.35473     163.0928     149.5689   1412.72973     198.3754     253.4779
   1428.33947     163.8357     150.3120   1412.71447     199.4474     254.7611
   1428.32421     164.8285     151.0948   1412.69921     200.2683     256.1973
   1428.30895     165.6309     151.9977   1412.68395     201.3367     257.6298
   1428.29369     166.4567     152.6441   1412.66869     202.6120     259.0238
   1428.27843     167.0770     153.5739   1412.65343     203.5929     260.7388
   1428.26317     168.1862     154.2217   1412.63817     204.5936     262.2267
   1428.24792     168.9977     155.0216   1412.62292     205.9421     263.6562
   1428.23266     169.6528     155.9015   1412.60766     206.8992     264.5689
   1428.21740     170.5995     156.7003   1412.59240     208.2464     266.3623
   1428.20214     171.4994     157.4198   1412.57714     209.2083     267.7126
   1428.18688     172.4644     158.2160   1412.56188     210.1820     269.1674
   1428.17162     172.9106     159.0587   1412.54662     211.5232     270.9933
   1428.15636     173.9967     159.9439   1412.53136     212.7382     272.3131
   1428.14110     174.6380     160.7530   1412.51610     213.6199     273.7032
   1428.12584     175.3082     161.5586   1412.50084     214.6017     275.3914
   1428.11059     176.2134     162.3326   1412.48559     215.5872     276.5875
   1428.09533     177.2975     163.1776   1412.47033     216.9906     278.1148
   1428.08007     177.7549     163.9637   1412.45507     217.8455     279.5715
   1428.06481     178.9563     164.7265   1412.43981     219.1807     280.8377
   1428.04955     179.4983     165.4795   1412.42455     220.2124     282.4313
   1428.03429     180.3269     166.4252   1412.40929     221.5557     283.7124
   1428.01903     180.9769     167.3436   1412.39403     222.6270     285.2777
   1428.00377     181.7575     168.0625   1412.37877     223.5655     286.5575
   1427.98852     182.5886     169.0747   1412.36352     224.8263     287.9213
   1427.97326     183.3055     169.8471   1412.34826     225.7845     289.3282
   1427.95800     183.9977     170.8820   1412.33300     226.7419     290.9426
   1427.94274     184.8335     171.6019   1412.31774     228.0552     292.3050
   1427.92748     185.6488     172.6356   1412.30248     229.0947     293.7208
   1427.91222     186.2696     173.3013   1412.28722     230.2608     295.3388
   1427.89696     187.1194     173.9679   1412.27196     231.4043     295.9434
   1427.88170     187.9753     175.1961   1412.25670     232.3515     298.0100
   1427.86645     188.6282     175.8072   1412.24145     233.2829     299.2370
   1427.85119     189.6324     176.6456   1412.22619     234.3506     300.6320
   1427.83593     190.1149     177.5045   1412.21093     235.6764     302.2458
   1427.82067     191.0365     178.2017   1412.19567     236.5988     303.7184
   1427.80541     191.3782     178.9577   1412.18041     237.7202     304.5862
   1427.79015     192.4030     180.0685   1412.16515     238.9193     306.3105
   1427.77489     192.9643     180.6776   1412.14989     239.7684     307.4841
   1427.75963     193.7320     181.5899   1412.13463     240.9648     308.8774
   1427.74437     194.5271     182.4242   1412.11937     241.8207     310.0243
   1427.72912     195.1637     183.2410   1412.10412     242.9263     311.2996
   1427.71386     195.6601     183.9901   1412.08886     244.2450     312.7298
   1427.69860     196.3780     184.9234   1412.07360     245.1130     314.1403
   1427.68334     196.9404     186.0229   1412.05834     246.1540     315.5687
   1427.66808     197.7677     186.5330   1412.04308     247.0170     316.8422
   1427.65282     198.5828     187.2355   1412.02782     248.4601     317.6727
   1427.63756     199.2269     188.2386   1412.01256     249.2602     319.4173
   1427.62230     199.6825     188.7728   1411.99730     250.3038     320.4425
   1427.60705     200.2941     189.9087   1411.98205     251.2238     321.5202
   1427.59179     201.1743     190.5642   1411.96679     252.2088     322.9227
   1427.57653     201.5289     191.2615   1411.95153     253.1871     323.7462
   1427.56127     202.1279     192.0714   1411.93627     254.3934     325.5487
   1427.54601     202.6800     192.8113   1411.92101     255.1987     326.3286
   1427.53075     203.2715     193.8696   1411.90575     256.0015     327.8065
   1427.51549     203.7455     194.7616   1411.89049     257.0597     328.7651
   1427.50023     204.7350     195.3971   1411.87523     257.9212     329.9244
   1427.48498     205.1851     196.1425   1411.85998     258.8135     331.3699
   1427.46972     205.5150     196.9106   1411.84472     259.6800     332.1301
   1427.45446     206.0481     197.7193   1411.82946     260.9002     332.7635
   1427.43920     206.7572     198.4265   1411.81420     261.8517     334.2122
   1427.42394     207.3225     199.0110   1411.79894     262.9502     335.0190
   1427.40868     207.7414     199.7903   1411.78368     263.7563     336.3962
   1427.39342     208.3436     200.6513   1411.76842     264.4647     337.4257
   1427.37816     208.7749     201.3409   1411.75316     265.4160     338.7351
   1427.36291     209.2022     202.3452   1411.73791     266.3864     339.2868
   1427.34765     209.8610     202.7733   1411.72265     267.3893     340.6786
   1427.33239     210.3419     203.8777   1411.70739     268.5475     341.3536
   1427.31713     210.9464     204.5381   1411.69213     268.9186     342.6936
   1427.30187     211.0940     204.9734   1411.67687     270.0158     343.5650
   1427.28661     211.6268     205.8391   1411.66161     270.8472     344.1130
   1427.27135     212.0749     206.5490   1411.64635     271.4857     345.2134
   1427.25609     212.6732     207.5226   1411.63109     272.3405     346.7422
   1427.24083     213.1960     208.0522   1411.61583     273.2996     346.9945
   1427.22558     213.5740     208.9872   1411.60058     274.3375     347.8821
   1427.21032     213.9310     209.4362   1411.58532     275.0955     349.1422
   1427.19506     214.5821     210.3154   1411.57006     275.6587     350.2548
   1427.17980     215.0034     210.8833   1411.55480     276.5328     350.6660
   1427.16454     215.2774     211.8969   1411.53954     277.2229     351.7884
   1427.14928     215.8109     212.2986   1411.52428     277.9767     351.9834
   1427.13402     216.0635     213.0720   1411.50902     279.0074     352.9351
   1427.11876     216.5377     213.6085   1411.49376     279.7970     354.2220
   1427.10351     216.8020     214.4350   1411.47851     280.3831     354.7276
   1427.08825     217.3748     215.2610   1411.46325     281.2590     355.7445
   1427.07299     217.5809     215.7310   1411.44799     281.8212     356.8187
   1427.05773     217.9756     216.4821   1411.43273     282.6959     357.3672
   1427.04247     218.2651     216.9786   1411.41747     283.2489     357.7434
   1427.02721     218.5637     217.7191   1411.40221     283.8880     358.9207
   1427.01195     218.9912     218.2319   1411.38695     284.6513     359.2103
   1426.99669     219.4330     218.9993   1411.37169     285.1281     360.1248
   1426.98144     219.8839     219.5911   1411.35644     286.1837     360.6508
   1426.96618     220.1539     220.1385   1411.34118     286.6751     361.8710
   1426.95092     220.2632     221.2283   1411.32592     287.3165     362.3365
   1426.93566     220.4727     221.6574   1411.31066     288.0410     362.8580
   1426.92040     220.8165     222.3014   1411.29540     289.0669     363.9606
   1426.90514     221.2054     222.8258   1411.28014     289.5391     364.1402
   1426.88988     221.1710     223.5155   1411.26488     290.0622     364.6929
   1426.87462     221.7680     224.3202   1411.24962     290.7892     365.2239
   1426.85937     222.4036     224.6444   1411.23437     291.2972     365.6938
   1426.84411     222.4978     225.3157   1411.21911     292.0105     366.6984
   1426.82885     222.7583     226.0911   1411.20385     292.7628     366.6363
   1426.81359     222.9999     226.3877   1411.18859     293.3785     367.6113
   1426.79833     222.9652     227.1947   1411.17333     293.8406     367.9644
   1426.78307     223.2115     227.6769   1411.15807     294.7438     368.5914
   1426.76781     224.0340     228.3400   1411.14281     295.2176     369.4582
   1426.75255     223.8248     229.0827   1411.12755     295.7437     369.9390
   1426.73729     224.2643     229.5176   1411.11229     296.0220     370.2881
   1426.72204     224.4574     229.9218   1411.09704     296.7737     370.2820
   1426.70678     224.8067     230.7647   1411.08178     297.3469     371.4493
   1426.69152     224.9983     231.2030   1411.06652     297.7997     371.5979
   1426.67626     225.1306     231.8501   1411.05126     298.3926     371.7794
   1426.66100     225.4701     232.2857   1411.03600     299.0249     372.1232
   1426.64574     225.5508     233.0244   1411.02074     299.6402     372.5534
   1426.63048     225.9632     233.9215   1411.00548     300.0760     373.2620
   1426.61522     226.3042     234.1728   1410.99022     300.6402     373.8452
   1426.59997     226.1954     234.4216   1410.97497     300.6566     373.6398
   1426.58471     226.7835     235.4347   1410.95971     301.5188     374.4547
   1426.56945     226.6016     235.7326   1410.94445     302.1564     374.8676
   1426.55419     226.8445     236.1836   1410.92919     302.7866     374.9624
   1426.53893     227.1569     236.7056   1410.91393     302.9809     375.4823
   1426.52367     227.0023     237.3154   1410.89867     303.7446     375.9286
   1426.50841     227.2448     237.9692   1410.88341     303.9519     375.8214
   1426.49315     227.4517     238.5471   1410.86815     304.5344     376.4970
   1426.47790     227.6954     238.9200   1410.85290     304.6068     377.0474
   1426.46264     227.8914     239.4341   1410.83764     305.4716     376.9199
   1426.44738     228.0774     240.1021   1410.82238     306.1389     376.9492
   1426.43212     228.2433     240.5523   1410.80712     306.2687     377.5222
   1426.41686     228.5446     241.1743   1410.79186     307.0536     377.9374
   1426.40160     228.3653     241.4619   1410.77660     307.2711     377.8644
   1426.38634     228.6682     241.9839   1410.76134     307.6457     378.2665
   1426.37108     228.8024     242.5845   1410.74608     308.2530     378.8677
   1426.35583     229.0742     243.1901   1410.73083     308.5827     378.7420
   1426.34057     228.9008     243.8522   1410.71557     309.3615     379.0020
   1426.32531     229.1152     244.4133   1410.70031     309.3649     379.0012
   1426.31005     229.4706     244.6854   1410.68505     309.8918     379.7880
   1426.29479     229.4358     245.1081   1410.66979     310.3297     379.5020
   1426.27953     229.5611     245.5055   1410.65453     310.9462     379.9528
   1426.26427     229.8307     246.3034   1410.63927     310.9922     379.9116
   1426.24901     230.0666     246.8961   1410.62401     311.8787     379.9878
   1426.23375     230.2480     246.8230   1410.60875     312.1127     380.2724
   1426.21850     230.2824     248.1540   1410.59350     312.4643     380.4312
   1426.20324     230.2790     248.3314   1410.57824     312.7430     380.1458
   1426.18798     230.3821     248.6550   1410.56298     313.1382     380.5841
   1426.17272     230.5950     249.3417   1410.54772     313.5440     380.7417
   1426.15746     230.6187     249.9518   1410.53246     313.8815     381.0783
   1426.14220     230.7339     250.2012   1410.51720     314.3568     381.1155
   1426.12694     230.9508     250.8076   1410.50194     314.9235     381.1104
   1426.11168     230.9739     251.4279   1410.48668     314.6273     380.7440
   1426.09643     231.2961     251.7491   1410.47143     315.4909     381.3606
   1426.08117     231.4272     252.2746   1410.45617     315.5218     381.5987
   1426.06591     231.4641     252.8323   1410.44091     316.0108     381.8802
   1426.05065     231.4822     253.3665   1410.42565     316.4696     381.7652
   1426.03539     231.8301     253.6570   1410.41039     316.9030     381.3224
   1426.02013     231.8577     254.3701   1410.39513     316.9872     381.8442
   1426.00487     232.0123     254.7934   1410.37987     317.2890     382.0630
   1425.98961     231.9630     255.2747   1410.36461     317.9415     382.1080
   1425.97436     232.0372     255.7681   1410.34936     318.4381     382.2403
   1425.95910     232.2778     256.3365   1410.33410     318.3103     382.3802
   1425.94384     232.5792     256.6349   1410.31884     318.7265     381.9902
   1425.92858     232.7195     257.1815   1410.30358     319.3763     382.2816
   1425.91332     232.6676     257.3916   1410.28832     319.8461     382.1825
   1425.89806     232.9559     258.0379   1410.27306     319.8618     382.1078
   1425.88280     232.9688     258.5729   1410.25780     320.2307     382.0503
   1425.86754     232.9999     258.8437   1410.24254     320.5725     382.4156
   1425.85229     233.0999     259.6750   1410.22729     321.2870     382.1380
   1425.83703     233.1121     259.6947   1410.21203     320.9657     382.1487
   1425.82177     233.4040     260.5472   1410.19677     321.3808     382.3746
   1425.80651     233.4509     260.8052   1410.18151     321.7903     382.1580
   1425.79125     233.6020     261.3710   1410.16625     322.1249     382.2771
   1425.77599     233.5954     262.0895   1410.15099     322.2662     382.1696
   1425.76073     233.8973     262.5015   1410.13573     322.7301     382.1775
   1425.74547     233.9000     262.6749   1410.12047     322.7827     381.8762
   1425.73021     234.1781     263.5375   1410.10521     323.1179     382.1421
   1425.71496     234.3125     264.2377   1410.08996     323.1719     382.1084
   1425.69970     234.4747     264.3034   1410.07470     324.1251     381.8537
   1425.68444     234.5883     264.8160   1410.05944     324.1409     381.7499
   1425.66918     234.5615     265.4699   1410.04418     324.4767     381.8061
   1425.65392     234.8596     265.9328   1410.02892     324.9431     381.9860
   1425.63866     234.8186     266.4926   1410.01366     324.7204     381.7841
   1425.62340     234.7913     266.8664   1409.99840     325.2913     382.1255
   1425.60814     235.3378     267.0479   1409.98314     325.5789     381.7865
   1425.59289     235.4471     267.7099   1409.96789     326.1681     381.8180
   1425.57763     235.5956     268.1482   1409.95263     326.3236     381.8254
   1425.56237     235.9128     268.5092   1409.93737     326.8186     382.2204
   1425.54711     235.7507     269.1297   1409.92211     326.8985     388.1258
   1425.53185     235.8348     269.5205   1409.90685     327.3354     381.5990
   1425.51659     236.1512     270.2426   1409.89159     327.2986     380.8299
   1425.50133     236.0974     270.7277   1409.87633     327.6427     381.5501
   1425.48607     236.5782     270.9017   1409.86107     327.8588     380.9795
   1425.47082     236.5939     271.7905   1409.84582     328.3934     381.0544
   1425.45556     236.5505     272.2512   1409.83056     328.8964     380.9992
   1425.44030     236.5608     272.5789   1409.81530     328.8233     381.0683
   1425.42504     237.0165     273.2520   1409.80004     329.0403     380.5776
   1425.40978     237.3138     273.3341   1409.78478     329.1651     380.6432
   1425.39452     237.4611     274.0748   1409.76952     329.5640     380.5713
   1425.37926     237.2104     274.4614   1409.75426     330.1276     380.3568
   1425.36400     237.6279     274.8847   1409.73900     330.5500     380.2486
   1425.34875     237.7996     275.7212   1409.72375     330.6623     380.1865
   1425.33349     237.8835     276.1948   1409.70849     330.5529     380.3124
   1425.31823     237.9470     276.5982   1409.69323     331.0487     379.7596
   1425.30297     238.0973     276.7626   1409.67797     331.0369     380.1322
   1425.28771     238.1812     277.2560   1409.66271     331.8718     379.6436
   1425.27245     238.6204     277.8229   1409.64745     332.0816     379.6452
   1425.25719     238.5796     278.7433   1409.63219     332.0854     379.8186
   1425.24193     238.9304     279.0487   1409.61693     332.7490     379.4151
   1425.22667     238.8832     279.5808   1409.60167     332.5573     379.4938
   1425.21142     239.4235     280.0246   1409.58642     332.9767     379.1574
   1425.19616     239.4572     280.2994   1409.57116     333.3975     378.7495
   1425.18090     239.7980     281.0050   1409.55590     332.9889     379.0043
   1425.16564     239.7315     281.3345   1409.54064     333.9333     378.5631
   1425.15038     239.5759     281.9879   1409.52538     334.2376     378.6428
   1425.13512     240.1421     282.3793   1409.51012     334.4032     378.7250
   1425.11986     240.0689     282.8833   1409.49486     334.8059     378.4248
   1425.10460     240.1830     283.3773   1409.47960     334.9140     378.3138
   1425.08935     240.7146     284.0226   1409.46435     334.9938     377.9036
   1425.07409     240.9657     284.7017   1409.44909     335.4395     377.7885
   1425.05883     240.8122     285.1642   1409.43383     335.5685     378.0609
   1425.04357     241.1307     285.7316   1409.41857     335.9685     377.7159
   1425.02831     241.2969     285.9547   1409.40331     336.0243     377.1279
   1425.01305     241.8451     286.3382   1409.38805     336.6450     377.3563
   1424.99779     241.7880     286.9192   1409.37279     336.5258     376.9937
   1424.98253     242.1024     287.4973   1409.35753     336.6238     377.0538
   1424.96728     242.0811     287.9876   1409.34228     337.0492     376.4910
   1424.95202     242.3340     288.6138   1409.32702     337.4243     377.0260
   1424.93676     242.6499     289.1761   1409.31176     337.7279     376.4107
   1424.92150     242.6741     289.4994   1409.29650     337.6177     375.9464
   1424.90624     242.9456     290.1064   1409.28124     337.8870     375.6947
   1424.89098     243.1917     290.3972   1409.26598     338.3896     376.1159
   1424.87572     243.4403     291.0550   1409.25072     338.3957     375.2956
   1424.86046     243.5102     291.3618   1409.23546     339.0933     375.6355
   1424.84521     243.8521     291.8564   1409.22021     339.3169     374.9396
   1424.82995     243.8346     292.1097   1409.20495     339.3666     374.8653
   1424.81469     244.2598     292.8265   1409.18969     339.4405     375.1473
   1424.79943     244.4157     293.3558   1409.17443     339.9366     374.8938
   1424.78417     244.6119     293.9370   1409.15917     339.6392     374.8575
   1424.76891     245.1248     294.2275   1409.14391     340.0225     374.5985
   1424.75365     244.9846     294.7919   1409.12865     340.5224     373.7028
   1424.73839     245.3206     295.0358   1409.11339     340.4629     374.5426
   1424.72313     245.4518     296.3524   1409.09813     340.8307     373.6259
   1424.70788     245.7356     296.5883   1409.08288     340.8915     374.0186
   1424.69262     245.7613     296.3744   1409.06762     341.6485     373.0399
   1424.67736     246.2907     297.2852   1409.05236     341.5595     373.0623
   1424.66210     246.4414     297.7057   1409.03710     342.8461     374.6265
   1424.64684     246.5436     298.2847   1409.02184     341.9074     372.9814
   1424.63158     246.9718     299.0700   1409.00658     342.0886     372.4331
   1424.61632     247.2658     299.1299   1408.99132     342.7328     372.2628
   1424.60106     247.4771     299.6455   1408.97606     342.7521     372.2329
   1424.58581     247.6105     300.2743   1408.96081     342.8454     371.9127
   1424.57055     247.6582     300.8112   1408.94555     343.1813     371.5289
   1424.55529     248.3387     301.4565   1408.93029     343.1701     371.7426
   1424.54003     248.0177     301.7916   1408.91503     343.4006     371.3681
   1424.52477     248.5788     302.0489   1408.89977     343.4410     370.9521
   1424.50951     248.7911     302.8983   1408.88451     343.5068     370.5734
   1424.49425     248.9170     302.9940   1408.86925     344.1153     370.6982
   1424.47899     249.1481     303.7628   1408.85399     343.9696     370.4784
   1424.46374     249.8533     303.8628   1408.83874     344.5456     369.9227
   1424.44848     249.7789     304.5831   1408.82348     344.1372     370.1592
   1424.43322     250.0501     305.1206   1408.80822     344.4546     369.8937
   1424.41796     250.2637     305.6658   1408.79296     344.8119     369.5366
   1424.40270     250.3665     305.8281   1408.77770     345.0859     369.1930
   1424.38744     250.7874     306.4589   1408.76244     344.9949     368.7606
   1424.37218     250.9650     306.9326   1408.74718     345.5536     368.4059
   1424.35692     251.3642     307.2840   1408.73192     345.4380     368.6950
   1424.34167     251.2784     307.5003   1408.71667     346.1924     368.3681
   1424.32641     251.8059     308.3079   1408.70141     345.6523     367.9293
   1424.31115     251.8676     308.8275   1408.68615     346.2925     367.9806
   1424.29589     252.1868     309.6494   1408.67089     346.6192     367.7271
   1424.28063     252.6372     309.7290   1408.65563     346.3741     366.9899
   1424.26537     252.8796     309.9008   1408.64037     346.1105     366.9203
   1424.25011     252.9077     310.9103   1408.62511     346.5688     367.0747
   1424.23485     253.2799     311.0950   1408.60985     347.3879     366.7458
   1424.21959     253.2535     311.2685   1408.59459     347.1207     366.1722
   1424.20434     253.4936     311.9043   1408.57934     347.1915     366.3635
   1424.18908     254.0818     312.3760   1408.56408     347.5650     365.6995
   1424.17382     254.3523     312.6003   1408.54882     347.4960     365.7309
   1424.15856     254.4326     312.7883   1408.53356     347.5737     365.2499
   1424.14330     254.9024     313.7984   1408.51830     347.4561     364.7224
   1424.12804     255.0907     313.7915   1408.50304     347.6406     364.6436
   1424.11278     255.0969     314.5069   1408.48778     347.9589     364.6733
   1424.09752     255.5044     315.0352   1408.47252     348.2530     364.3494
   1424.08227     255.6946     315.1296   1408.45727     348.1786     363.8278
   1424.06701     255.7156     315.3386   1408.44201     348.1904     363.7827
   1424.05175     256.0995     315.9349   1408.42675     348.9170     363.2271
   1424.03649     256.6362     316.3783   1408.41149     348.6069     363.0884
   1424.02123     256.8607     316.7650   1408.39623     348.6437     362.5288
   1424.00597     257.0817     317.1540   1408.38097     349.3569     362.1074
   1423.99071     257.2030     317.6731   1408.36571     348.9639     362.7564
   1423.97545     257.7324     318.0528   1408.35045     348.9772     362.0909
   1423.96020     257.9653     318.6794   1408.33520     348.8527     361.8394
   1423.94494     258.0976     319.1021   1408.31994     349.5148     361.3060
   1423.92968     258.3232     319.5809   1408.30468     349.7310     361.3114
   1423.91442     258.6931     319.7497   1408.28942     349.8102     361.0123
   1423.89916     258.7824     319.9890   1408.27416     349.7369     360.4273
   1423.88390     258.8955     320.6533   1408.25890     349.8746     360.1853
   1423.86864     259.3075     320.6499   1408.24364     349.7376     359.9383
   1423.85338     259.6844     321.1572   1408.22838     350.0873     359.9581
   1423.83812     259.5310     321.6957   1408.21312     349.5961     359.5520
   1423.82287     259.8736     322.2821   1408.19787     350.0357     358.9214
   1423.80761     260.4940     322.2308   1408.18261     349.8855     358.9728
   1423.79235     260.7257     322.4435   1408.16735     350.2276     357.9782
   1423.77709     261.0742     322.7676   1408.15209     350.4286     357.9702
   1423.76183     261.1815     323.6376   1408.13683     350.4474     357.6468
   1423.74657     261.4883     324.1493   1408.12157     350.2129     357.0458
   1423.73131     261.8604     324.0626   1408.10631     350.0135     357.1555
   1423.71605     261.7265     324.2799   1408.09105     350.4387     356.9554
   1423.70080     262.2379     324.5530   1408.07580     350.3097     356.5519
   1423.68554     262.2534     325.1115   1408.06054     350.7045     355.8333
   1423.67028     262.8217     325.6429   1408.04528     351.0987     355.6329
   1423.65502     262.7471     326.0323   1408.03002     350.6044     355.3745
   1423.63976     263.0731     326.1983   1408.01476     350.3451     355.4301
   1423.62450     263.3847     326.5093   1407.99950     351.0435     355.1781
   1423.60924     263.5529     326.4486   1407.98424     350.8619     354.5762
   1423.59398     263.6942     327.0866   1407.96898     350.8444     353.9761
   1423.57873     264.0150     327.3960   1407.95373     350.9434     354.1890
   1423.56347     264.3109     327.4918   1407.93847     351.3481     353.3879
   1423.54821     264.4970     327.8042   1407.92321     350.6482     353.5408
   1423.53295     264.6189     328.1613   1407.90795     350.8806     352.7062
   1423.51769     265.2754     328.3684   1407.89269     350.8000     352.6393
   1423.50243     265.2479     328.6153   1407.87743     350.5975     352.3878
   1423.48717     265.7461     328.9005   1407.86217     350.9795     351.8435
   1423.47191     265.5470     329.4296   1407.84691     350.7798     351.4216
   1423.45666     266.1220     329.6580   1407.83166     350.9233     351.3585
   1423.44140     266.4070     329.8403   1407.81640     351.6204     350.9427
   1423.42614     266.4823     330.4888   1407.80114     350.7170     350.7662
   1423.41088     266.9476     330.5186   1407.78588     351.2162     350.2498
   1423.39562     267.2022     330.7867   1407.77062     350.9102     350.0930
   1423.38036     267.2270     331.3460   1407.75536     351.1871     349.4443
   1423.36510     267.6188     331.4289   1407.74010     350.6101     349.1799
   1423.34984     267.9536     331.1096   1407.72484     351.1605     349.0646
   1423.33458     267.8342     331.9159   1407.70958     350.6345     348.4522
   1423.31933     268.0236     331.9320   1407.69433     351.3226     348.1993
   1423.30407     268.1817     332.5571   1407.67907     350.4646     347.7937
   1423.28881     268.6487     332.4970   1407.66381     350.8814     347.5525
   1423.27355     268.6449     332.4588   1407.64855     351.0502     347.0390
   1423.25829     269.0651     333.1779   1407.63329     351.1446     346.5180
   1423.24303     269.4224     332.8503   1407.61803     350.5212     346.4214
   1423.22777     269.9247     333.3284   1407.60277     351.1154     345.8667
   1423.21251     270.0171     333.5433   1407.58751     350.5977     345.8402
   1423.19726     270.0986     333.5462   1407.57226     350.5660     345.0215
   1423.18200     270.4390     333.8426   1407.55700     350.5901     345.0121
   1423.16674     270.7281     333.9048   1407.54174     350.2293     345.0581
   1423.15148     270.8151     334.5431   1407.52648     350.7232     344.2759
   1423.13622     270.8389     334.2776   1407.51122     350.3540     343.7214
   1423.12096     271.4155     334.6596   1407.49596     349.9040     343.6466
   1423.10570     271.5089     334.4566   1407.48070     350.5262     343.2766
   1423.09044     271.7905     335.1819   1407.46544     350.6446     343.1039
   1423.07519     272.0991     335.0866   1407.45019     350.3361     343.0195
   1423.05993     272.2837     335.2694   1407.43493     349.6795     342.0098
   1423.04467     272.5594     335.6979   1407.41967     350.0976     341.6936
   1423.02941     272.6877     335.7809   1407.40441     350.0112     341.6756
   1423.01415     273.1284     335.9589   1407.38915     349.6526     341.2351
   1422.99889     273.1393     335.6551   1407.37389     350.0115     340.8985
   1422.98363     273.3094     336.3123   1407.35863     349.7977     340.3046
   1422.96837     273.8384     336.1535   1407.34337     349.4016     340.5259
   1422.95312     274.0294     336.4873   1407.32812     349.5748     340.1661
   1422.93786     274.2458     336.5509   1407.31286     349.4773     339.6401
   1422.92260     274.2939     336.7887   1407.29760     349.3792     338.9876
   1422.90734     274.5533     336.7878   1407.28234     349.2304     339.1012
   1422.89208     274.8517     337.5137   1407.26708     349.4324     338.5058
   1422.87682     274.8779     336.9465   1407.25182     349.3298     338.0067
   1422.86156     275.1888     337.1613   1407.23656     349.0865     337.5174
   1422.84630     275.6662     337.5505   1407.22130     349.0562     337.5734
   1422.83104     275.8372     337.1520   1407.20604     348.7692     336.9794
   1422.81579     276.1308     337.6872   1407.19079     348.5812     336.5761
   1422.80053     276.1956     337.6992   1407.17553     348.7426     336.2959
   1422.78527     276.5784     337.5782   1407.16027     348.3388     335.6686
   1422.77001     276.7597     338.0004   1407.14501     348.2789     335.5948
   1422.75475     276.6315     338.2171   1407.12975     348.6214     335.6354
   1422.73949     276.9784     338.1277   1407.11449     348.0925     334.6375
   1422.72423     277.5153     338.3765   1407.09923     348.3205     334.6981
   1422.70897     277.5744     338.3731   1407.08397     348.0040     334.4290
   1422.69372     277.5289     338.4584   1407.06872     347.7492     334.2309
   1422.67846     277.7800     338.3337   1407.05346     347.7206     333.5139
   1422.66320     278.4760     338.4080   1407.03820     347.6678     333.1826
   1422.64794     278.3622     338.6870   1407.02294     347.7424     332.7275
   1422.63268     278.6588     338.5120   1407.00768     347.4589     332.8381
   1422.61742     278.8633     338.5991   1406.99242     347.3758     332.6672
   1422.60216     279.3958     338.7385   1406.97716     347.4028     332.0561
   1422.58690     279.0848     338.4730   1406.96190     346.7892     331.6050
   1422.57165     279.7119     338.8291   1406.94665     347.2159     331.3419
   1422.55639     279.8065     339.1613   1406.93139     346.6128     331.0971
   1422.54113     280.0524     339.2299   1406.91613     346.7066     330.3542
   1422.52587     280.5413     339.4603   1406.90087     346.6978     330.0018
   1422.51061     280.2037     339.4550   1406.88561     346.4496     330.0724
   1422.49535     280.8376     339.1459   1406.87035     346.4875     329.5436
   1422.48009     281.0924     339.3440   1406.85509     346.0010     329.2487
   1422.46483     281.3370     339.3955   1406.83983     345.7481     329.0393
   1422.44958     281.2209     339.6692   1406.82458     345.8991     328.6648
   1422.43432     281.2059     338.9682   1406.80932     345.6455     328.2738
   1422.41906     282.1088     339.2011   1406.79406     345.7263     328.6586
   1422.40380     281.9667     339.5668   1406.77880     345.7905     327.6965
   1422.38854     282.0526     339.6362   1406.76354     345.3444     327.4691
   1422.37328     282.5279     339.6440   1406.74828     345.6926     327.0549
   1422.35802     282.6414     339.6026   1406.73302     345.3134     326.8120
   1422.34276     282.9657     339.7166   1406.71776     345.2342     326.3771
   1422.32750     283.2610     339.6830   1406.70250     344.5697     326.2580
   1422.31225     283.1825     339.3448   1406.68725     344.7764     325.7219
   1422.29699     283.6986     339.3062   1406.67199     344.6530     325.6953
   1422.28173     283.8609     339.4479   1406.65673     344.4888     325.0049
   1422.26647     284.0666     339.3075   1406.64147     344.1392     325.1294
   1422.25121     284.2031     339.5734   1406.62621     344.2545     324.6396
   1422.23595     284.5070     339.6527   1406.61095     343.7240     323.9565
   1422.22069     284.8211     339.6202   1406.59569     343.7240     323.9657
   1422.20543     285.0900     339.5446   1406.58043     343.3976     323.8008
   1422.19018     285.4023     339.7518   1406.56518     342.9984     323.5789
   1422.17492     285.4369     339.2321   1406.54992     343.2714     322.9990
   1422.15966     285.8167     339.3675   1406.53466     343.4980     322.3863
   1422.14440     286.0270     339.3134   1406.51940     343.2260     322.7165
   1422.12914     285.8466     339.3679   1406.50414     342.8123     322.0063
   1422.11388     286.3074     339.5288   1406.48888     342.8961     321.7272
   1422.09862     286.6101     339.2590   1406.47362     342.6223     321.4935
   1422.08336     286.8094     339.3077   1406.45836     342.1164     321.3213
   1422.06811     287.2071     339.1797   1406.44311     342.2757     320.9096
   1422.05285     287.1671     339.0414   1406.42785     341.8794     320.4047
   1422.03759     287.6078     339.3955   1406.41259     341.7684     320.4174
   1422.02233     287.4474     338.9580   1406.39733     341.2091     320.1552
   1422.00707     287.9950     338.9640   1406.38207     341.1171     319.8195
   1421.99181     288.1724     338.8841   1406.36681     341.1495     319.4471
   1421.97655     288.4648     339.0043   1406.35155     340.7162     319.5510
   1421.96129     288.5650     339.2218   1406.33629     340.7279     319.1652
   1421.94604     288.7336     339.0060   1406.32104     340.7570     318.8586
   1421.93078     289.3413     338.5205   1406.30578     340.2868     318.5297
   1421.91552     289.3874     338.8023   1406.29052     340.1669     318.4091
   1421.90026     289.5580     338.5747   1406.27526     341.0746     318.8686
   1421.88500     289.7872     338.7115   1406.26000     340.8326     319.0166
   1421.86974     290.0164     338.8477   1406.24474     340.5903     319.1644
   1421.85448     290.0091     339.0827   1406.22948     339.6021     317.2950
   1421.83922     290.1728     338.4496   1406.21422     339.7140     317.8263
   1421.82396     290.6662     338.3455   1406.19896     339.6713     317.1003
   1421.80871     291.1904     338.3883   1406.18371     339.3460     317.0129
   1421.79345     291.4118     338.1100   1406.16845     338.9018     316.9431
   1421.77819     291.3258     338.6868   1406.15319     339.0039     316.1674
   1421.76293     291.5280     338.2401   1406.13793     339.0010     316.1742
   1421.74767     292.0625     337.9856   1406.12267     338.8434     316.2652
   1421.73241     291.9442     337.7858   1406.10741     339.1359     315.9945
   1421.71715     292.9530     337.6912   1406.09215     338.8752     315.8066
   1421.70189     292.4426     337.6299   1406.07689     338.9607     315.5831
   1421.68664     292.7672     337.6573   1406.06164     338.6734     315.7436
   1421.67138     293.3783     337.6310   1406.04638     338.6828     314.8709
   1421.65612     293.4968     337.8902   1406.03112     338.3680     315.5779
   1421.64086     293.2138     337.4909   1406.01586     338.2959     315.2044
   1421.62560     293.7679     337.4094   1406.00060     338.2174     315.4942
   1421.61034     293.8828     337.4864   1405.98534     338.1669     314.9464
   1421.59508     294.1294     336.8659   1405.97008     338.4054     314.9670
   1421.57982     294.4962     337.3351   1405.95482     337.9794     314.7786
   1421.56457     294.7635     337.0252   1405.93957     337.9155     314.6908
   1421.54931     294.7548     336.6887   1405.92431     337.6895     313.9515
   1421.53405     295.2894     336.9844   1405.90905     337.5582     314.0646
   1421.51879     295.6436     336.9830   1405.89379     337.5417     313.9631
   1421.50353     295.5193     336.8532   1405.87853     337.5676     314.3109
   1421.48827     295.9269     336.6607   1405.86327     336.9564     314.0425
   1421.47301     296.0123     336.5894   1405.84801     336.8199     313.7115
   1421.45775     296.3927     336.1751   1405.83275     336.8976     313.6150
   1421.44250     296.4860     336.3712   1405.81750     336.5740     313.3352
   1421.42724     296.8127     336.2052   1405.80224     336.6674     313.4688
   1421.41198     297.4164     335.5241   1405.78698     336.8599     313.2055
   1421.39672     297.5064     335.7314   1405.77172     336.1684     313.2730
   1421.38146     297.3479     335.8425   1405.75646     336.0411     312.9413
   1421.36620     297.4675     335.7979   1405.74120     336.5277     313.3796
   1421.35094     297.6272     335.3478   1405.72594     336.3010     312.9804
   1421.33568     298.4008     335.2282   1405.71068     335.7873     313.1080
   1421.32042     298.4734     335.3838   1405.69542     336.1467     312.9512
   1421.30517     298.5674     335.0482   1405.68017     335.5933     312.6936
   1421.28991     298.8034     335.2833   1405.66491     336.1670     312.3015
   1421.27465     299.1288     335.1711   1405.64965     335.2905     312.4144
   1421.25939     299.0633     334.4796   1405.63439     335.1232     311.9316
   1421.24413     299.4922     334.5951   1405.61913     335.4941     312.5036
   1421.22887     299.8018     334.6068   1405.60387     335.3347     312.0544
   1421.21361     299.9371     334.1369   1405.58861     335.3723     311.9974
   1421.19835     299.7786     334.3616   1405.57335     335.1287     312.1573
   1421.18310     300.6932     333.6581   1405.55810     334.6874     311.9258
   1421.16784     300.3370     333.9305   1405.54284     334.6898     311.5829
   1421.15258     300.9430     333.6672   1405.52758     334.1624     311.8188
   1421.13732     300.9945     333.7907   1405.51232     334.4308     311.7990
   1421.12206     301.2018     333.2892   1405.49706     334.5522     312.0480
   1421.10680     301.3394     333.0141   1405.48180     334.4168     311.5422
   1421.09154     301.5234     333.0479   1405.46654     334.2518     311.4633
   1421.07628     301.7803     332.7246   1405.45128     334.0167     311.1279
   1421.06103     301.7693     332.9369   1405.43603     334.3562     311.0802
   1421.04577     302.3842     332.5664   1405.42077     333.2658     311.1733
   1421.03051     302.5455     332.1889   1405.40551     333.4219     310.7613
   1421.01525     302.8036     332.5484   1405.39025     333.1488     311.4502
   1420.99999     302.7642     332.2208   1405.37499     333.5624     310.9436
   1420.98473     303.2138     332.4404   1405.35973     333.4176     310.8912
   1420.96947     303.1562     331.8177   1405.34447     333.2025     310.9943
   1420.95421     303.5775     331.9615   1405.32921     332.8570     310.4973
   1420.93896     303.3287     331.4534   1405.31396     332.7651     310.9158
   1420.92370     303.9384     331.1263   1405.29870     332.6237     310.8029
   1420.90844     304.1364     331.4583   1405.28344     332.2711     310.6357
   1420.89318     304.1775     331.2044   1405.26818     332.3733     310.2132
   1420.87792     304.6430     330.7633   1405.25292     332.3492     310.6763
   1420.86266     304.7621     330.7408   1405.23766     332.0692     310.7574
   1420.84740     304.8181     330.7392   1405.22240     332.1783     310.5591
   1420.83214     305.3315     330.2823   1405.20714     331.8376     310.4212
   1420.81688     305.2335     330.4175   1405.19188     331.9585     310.4747
   1420.80163     305.3921     330.3468   1405.17663     331.5652     310.6254
   1420.78637     305.9907     329.9724   1405.16137     331.5648     310.6231
   1420.77111     305.7956     329.5579   1405.14611     331.2413     310.5276
   1420.75585     306.3228     329.6858   1405.13085     331.1342     310.2026
   1420.74059     306.3987     329.1899   1405.11559     331.2441     310.3596
   1420.72533     306.6605     329.0475   1405.10033     331.0104     310.1239
   1420.71007     306.5846     329.1053   1405.08507     330.6013     310.1283
   1420.69481     306.8038     328.9593   1405.06981     330.5775     310.0498
   1420.67956     307.1325     328.9774   1405.05456     330.4090     310.4751
   1420.66430     307.0631     328.5925   1405.03930     330.2115     310.5406
   1420.64904     307.3860     328.4601   1405.02404     330.2006     310.4000
   1420.63378     307.7578     328.1759   1405.00878     329.6146     310.2050
   1420.61852     308.2166     328.0064   1404.99352     330.1229     310.2656
   1420.60326     308.3447     328.1975   1404.97826     329.8889     309.9571
   1420.58800     308.4819     327.8849   1404.96300     329.5281     310.3288
   1420.57274     308.5299     327.6389   1404.94774     329.9629     310.2105
   1420.55749     308.7739     327.5933   1404.93249     329.2910     309.8947
   1420.54223     309.0096     327.0941   1404.91723     329.2805     310.2276
   1420.52697     309.1706     327.3434   1404.90197     329.1355     310.4233
   1420.51171     309.8022     327.4092   1404.88671     328.9274     310.2893
   1420.49645     309.6461     326.7063   1404.87145     328.7067     310.3995
   1420.48119     310.0228     326.8290   1404.85619     328.3761     310.3400
   1420.46593     310.4081     327.1804   1404.84093     328.6711     310.3561
   1420.45067     310.6267     326.7395   1404.82567     328.0951     310.1862
   1420.43542     311.0118     327.0202   1404.81042     328.0349     310.3104
   1420.42016     311.5628     326.9019   1404.79516     328.1490     310.4083
   1420.40490     311.6554     327.2488   1404.77990     328.2577     310.2966
   1420.38964     312.1665     327.0464   1404.76464     327.4151     310.3410
   1420.37438     313.4546     327.5385   1404.74938     327.7639     310.2316
   1420.35912     314.0064     327.9984   1404.73412     327.6483     310.2691
   1420.34386     314.9967     328.6796   1404.71886     326.7980     310.5783
   1420.32860     316.5729     330.2740   1404.70360     327.3924     310.4004
   1420.31334     319.3546     332.6402   1404.68834     327.3075     310.8711
   1420.29809     324.6250     337.4049   1404.67309     327.0149     310.8039
   1420.28283     333.8797     346.5349   1404.65783     326.4215     310.5748
   1420.26757     350.5586     362.5969   1404.64257     326.5150     310.9455
   1420.25231     374.2333     386.7890   1404.62731     326.3819     310.5905
   1420.23705     409.6784     421.5762   1404.61205     326.4001     310.3032
   1420.22179     442.7444     453.9009   1404.59679     326.3024     311.0043
   1420.20653     446.8194     458.0790   1404.58153     326.1626     310.6958
   1420.19127     423.0224     433.6725   1404.56627     325.6949     310.8370
   1420.17602     384.4083     394.6298   1404.55102     325.4930     310.8162
   1420.16076     354.4327     364.6948   1404.53576     325.3102     310.5814
   1420.14550     336.3217     345.7559   1404.52050     325.1488     310.9383
   1420.13024     326.9665     336.4841   1404.50524     325.4615     310.8187
   1420.11498     322.7863     331.2021   1404.48998     325.0462     311.0455
   1420.09972     319.7653     328.1433   1404.47472     325.0275     310.8148
   1420.08446     317.7874     325.7954   1404.45946     324.7751     311.3913
   1420.06920     316.1274     323.7193   1404.44420     324.3070     311.1033
   1420.05395     314.8385     322.1375   1404.42895     324.5614     311.3421
   1420.03869     313.9820     321.1250   1404.41369     324.5365     311.2745
   1420.02343     313.4234     320.6354   1404.39843     324.2857     311.8505
   1420.00817     313.4787     319.5548   1404.38317     324.0255     311.6602
   1419.99291     313.0060     319.3344   1404.36791     324.1226     311.5215
   1419.97765     313.1751     318.9373   1404.35265     323.5883     311.7867
   1419.96239     313.1240     318.5221   1404.33739     323.5556     311.6635
   1419.94713     313.0537     317.9703   1404.32213     323.6040     311.6331
   1419.93187     312.9186     317.8766   1404.30687     323.3029     311.7839
   1419.91662     312.5425     317.5172   1404.29162     322.7820     311.7700
   1419.90136     312.6047     317.1678   1404.27636     322.8191     311.8395
   1419.88610     312.6028     316.6017   1404.26110     322.5477     311.8508
   1419.87084     312.7999     316.2239   1404.24584     322.7354     311.9695
   1419.85558     312.9374     316.0297   1404.23058     322.3474     312.1499
   1419.84032     313.0228     316.1823   1404.21532     322.5858     312.5143
   1419.82506     312.8739     315.5287   1404.20006     321.9510     312.5824
   1419.80980     312.9077     315.3157   1404.18480     322.3241     312.3234
   1419.79455     312.7487     314.9549   1404.16955     321.8733     312.6918
   1419.77929     313.0270     314.7940   1404.15429     321.5814     312.5601
   1419.76403     312.8586     314.5526   1404.13903     321.8316     312.8278
   1419.74877     313.0555     314.5592   1404.12377     321.3297     312.7152
   1419.73351     312.3873     314.1898   1404.10851     321.2204     312.8195
   1419.71825     313.1378     313.9977   1404.09325     321.3463     313.4372
   1419.70299     312.5787     313.5194   1404.07799     320.8596     313.1757
   1419.68773     312.6984     313.5000   1404.06273     320.8060     313.3973
   1419.67248     312.7665     312.9410   1404.04748     320.7372     313.2310
   1419.65722     312.9496     312.7900   1404.03222     320.5684     313.7805
   1419.64196     312.9790     312.6229   1404.01696     320.4221     313.3851
   1419.62670     312.5497     312.4437   1404.00170     320.0008     313.7319
   1419.61144     313.1274     312.0301   1403.98644     319.9749     313.4992
   1419.59618     312.7400     311.8369   1403.97118     319.7198     313.9984
   1419.58092     312.6606     311.4170   1403.95592     319.8858     314.2708
   1419.56566     312.4861     311.2667   1403.94066     319.2461     314.2633
   1419.55041     312.5718     311.0933   1403.92541     319.5557     313.8441
   1419.53515     313.1783     310.7381   1403.91015     319.4055     315.0115
   1419.51989     312.5101     310.3443   1403.89489     319.1794     314.6674
   1419.50463     312.1838     310.4846   1403.87963     318.9224     314.7422
   1419.48937     312.4814     310.0466   1403.86437     318.6499     315.1959
   1419.47411     312.5286     309.7328   1403.84911     318.8876     315.2325
   1419.45885     312.4546     309.4952   1403.83385     319.2311     315.1113
   1419.44359     312.4122     309.4740   1403.81859     318.3396     315.4522
   1419.42833     312.1787     309.1799   1403.80333     318.4191     315.6374
   1419.41308     312.2328     308.7610   1403.78808     318.2412     316.0555
   1419.39782     312.2838     308.5027   1403.77282     317.8954     315.6803
   1419.38256     312.1143     308.4797   1403.75756     317.7976     316.0083
   1419.36730     312.0243     308.0421   1403.74230     317.3652     316.3492
   1419.35204     311.8061     307.5284   1403.72704     317.7368     316.5666
   1419.33678     311.9061     307.6711   1403.71178     317.3036     316.1786
   1419.32152     311.8516     307.4978   1403.69652     317.3124     316.5878
   1419.30626     312.0469     307.1052   1403.68126     317.2089     316.8723
   1419.29101     311.4180     306.9385   1403.66601     316.8426     316.6628
   1419.27575     312.0071     306.4831   1403.65075     316.9698     317.0977
   1419.26049     311.6111     306.5934   1403.63549     316.7409     317.4139
   1419.24523     311.4318     306.2285   1403.62023     316.7199     317.4543
   1419.22997     311.4542     306.2214   1403.60497     316.6592     317.3934
   1419.21471     311.1909     306.0269   1403.58971     316.4144     317.7914
   1419.19945     311.3771     305.6327   1403.57445     316.3666     317.7380
   1419.18419     310.9509     305.2849   1403.55919     316.0666     318.0993
   1419.16894     311.1137     305.0680   1403.54394     316.0151     317.8608
   1419.15368     311.2550     304.8788   1403.52868     316.1290     318.6300
   1419.13842     310.8962     304.8730   1403.51342     315.7662     318.5900
   1419.12316     310.2326     304.4697   1403.49816     315.6340     318.8879
   1419.10790     310.2865     304.2433   1403.48290     315.7583     318.9276
   1419.09264     310.4720     303.8701   1403.46764     314.9940     319.2002
   1419.07738     310.2014     303.4683   1403.45238     315.1162     319.0098
   1419.06212     310.4634     303.4632   1403.43712     315.1677     319.6817
   1419.04687     310.3363     303.4743   1403.42187     315.0701     320.0242
   1419.03161     310.1791     303.0954   1403.40661     314.9933     320.5133
   1419.01635     309.9188     302.9979   1403.39135     315.0732     320.6167
   1419.00109     309.7586     302.9463   1403.37609     314.7839     320.7626
   1418.98583     309.8289     302.6309   1403.36083     314.8361     320.7374
   1418.97057     309.2189     302.2389   1403.34557     314.5145     321.0245
   1418.95531     309.2854     301.9050   1403.33031     314.7487     321.2457
   1418.94005     309.1745     302.0538   1403.31505     314.6564     321.5446
   1418.92479     309.0551     301.5749   1403.29979     314.3552     321.8391
   1418.90954     309.0257     301.4775   1403.28454     314.3140     321.6490
   1418.89428     308.7534     301.3580   1403.26928     314.2851     321.8576
   1418.87902     308.6305     301.1953   1403.25402     313.9507     322.3161
   1418.86376     308.6965     300.9541   1403.23876     314.0482     322.6917
   1418.84850     308.5051     300.2597   1403.22350     313.9862     322.8811
   1418.83324     307.9767     300.9538   1403.20824     313.8912     322.9480
   1418.81798     308.0188     300.1767   1403.19298     313.5767     323.4059
   1418.80272     307.5371     300.2082   1403.17772     313.7009     323.6487
   1418.78747     307.5229     299.9505   1403.16247     313.5641     323.5580
   1418.77221     307.6113     299.9909   1403.14721     313.7005     324.3183
   1418.75695     307.0034     299.6571   1403.13195     313.1815     324.2964
   1418.74169     307.1479     299.7187   1403.11669     313.4920     324.7390
   1418.72643     307.4504     299.5825   1403.10143     313.2854     325.1273
   1418.71117     307.1494     299.2089   1403.08617     313.0491     325.2321
   1418.69591     306.7342     298.7997   1403.07091     312.8235     325.8658
   1418.68065     306.2485     298.7702   1403.05565     312.9648     325.8347
   1418.66540     306.0692     298.4113   1403.04040     313.0427     326.2477
   1418.65014     306.4091     298.3834   1403.02514     312.7094     326.4653
   1418.63488     306.2104     298.6441   1403.00988     312.8422     326.6501
   1418.61962     305.5544     298.1735   1402.99462     312.7130     327.1589
   1418.60436     305.7825     298.1702   1402.97936     312.8591     327.5084
   1418.58910     305.6309     297.7583   1402.96410     312.3682     327.7631
   1418.57384     305.4988     297.9346   1402.94884     312.7749     327.9743
   1418.55858     305.2561     297.5201   1402.93358     312.8078     328.2771
   1418.54333     305.1380     297.0070   1402.91833     312.3498     328.8632
   1418.52807     304.3645     297.1803   1402.90307     312.8940     328.5674
   1418.51281     304.7497     297.2735   1402.88781     312.7010     329.3664
   1418.49755     304.4667     297.1377   1402.87255     312.3210     329.6337
   1418.48229     304.3025     296.6987   1402.85729     312.3845     329.5888
   1418.46703     304.0432     296.6658   1402.84203     312.1808     330.2067
   1418.45177     303.9565     296.1846   1402.82677     312.1825     330.9794
   1418.43651     303.4060     296.3655   1402.81151     312.3030     330.6931
   1418.42125     303.3554     296.3187   1402.79625     312.5010     330.9985
   1418.40600     303.3679     295.8398   1402.78100     312.0792     331.8487
   1418.39074     303.0025     296.0988   1402.76574     311.8470     332.1727
   1418.37548     302.4500     295.8876   1402.75048     311.9626     332.1137
   1418.36022     302.8058     295.6054   1402.73522     312.2487     332.4013
   1418.34496     301.8420     295.5862   1402.71996     311.9545     332.8805
   1418.32970     302.3170     295.5679   1402.70470     311.9306     333.0475
   1418.31444     301.7806     295.2539   1402.68944     311.8260     333.2392
   1418.29918     301.5251     295.0628   1402.67418     311.9769     334.0305
   1418.28393     301.2771     295.4386   1402.65893     312.0433     334.2915
   1418.26867     300.8954     294.5746   1402.64367     311.8824     334.9217
   1418.25341     300.7619     294.6063   1402.62841     311.8358     334.9794
   1418.23815     300.8676     294.9844   1402.61315     311.8882     335.2572
   1418.22289     300.4658     294.5333   1402.59789     312.0197     335.7686
   1418.20763     300.1848     294.8564   1402.58263     311.5408     336.0966
   1418.19237     300.1105     294.4255   1402.56737     312.0170     336.5825
   1418.17711     299.7169     294.5327   1402.55211     311.9536     336.9396
   1418.16186     299.7949     294.5061   1402.53686     311.8912     337.1283
   1418.14660     299.4590     294.1701   1402.52160     312.1894     337.9225
   1418.13134     298.8780     294.1219   1402.50634     312.6377     338.7132
   1418.11608     298.4338     293.8197   1402.49108     312.0206     338.2773
   1418.10082     298.6183     293.7545   1402.47582     312.2669     338.9873
   1418.08556     298.4771     294.0626   1402.46056     312.2160     338.8769
   1418.07030     298.2783     293.6705   1402.44530     312.0838     339.4336
   1418.05504     297.7485     293.6440   1402.43004     311.9789     339.8887
   1418.03979     297.4886     293.8973   1402.41479     311.9944     340.0593
   1418.02453     297.1596     293.3643   1402.39953     312.3291     340.6008
   1418.00927     296.5684     293.2322   1402.38427     311.7160     340.7686
   1417.99401     296.8769     293.0017   1402.36901     312.0982     341.4738
   1417.97875     296.7763     293.1784   1402.35375     311.9157     341.6195
   1417.96349     296.3198     293.1201   1402.33849     312.1671     342.2594
   1417.94823     295.9848     292.7777   1402.32323     312.3115     342.3398
   1417.93297     295.5678     292.7942   1402.30797     312.2529     342.7086
   1417.91771     294.8105     292.6751   1402.29271     312.0644     343.2780
   1417.90246     294.9245     292.6959   1402.27746     311.9778     343.1829
   1417.88720     294.8066     292.8271   1402.26220     312.0009     344.4903
   1417.87194     294.7189     292.7534   1402.24694     312.1311     344.5266
   1417.85668     294.0343     292.5710   1402.23168     312.2646     344.6510
   1417.84142     294.0124     292.3250   1402.21642     312.1830     345.0239
   1417.82616     293.2386     292.2058   1402.20116     312.5013     345.6338
   1417.81090     293.1363     292.1177   1402.18590     312.2079     346.2499
   1417.79564     292.6841     292.3229   1402.17064     312.2321     346.4840
   1417.78039     292.4674     292.0843   1402.15539     312.6247     346.9579
   1417.76513     292.4936     291.9739   1402.14013     312.4208     347.5309
   1417.74987     291.7541     292.2492   1402.12487     312.5246     347.3440
   1417.73461     291.5165     291.7800   1402.10961     312.2780     347.8551
   1417.71935     291.6342     291.5036   1402.09435     312.3578     348.5657
   1417.70409     290.7759     291.4624   1402.07909     312.4323     348.6232
   1417.68883     290.6518     291.8024   1402.06383     312.5942     349.0312
   1417.67357     290.1724     291.2143   1402.04857     312.5223     349.6683
   1417.65832     289.9833     291.6194   1402.03332     312.4431     350.1516
   1417.64306     289.9009     291.3804   1402.01806     312.6693     350.5669
   1417.62780     289.2323     291.2342   1402.00280     312.7937     350.1685
   1417.61254     288.6652     291.0981   1401.98754     312.5478     351.0701
   1417.59728     288.4361     290.8798   1401.97228     312.6392     351.1843
   1417.58202     288.4789     291.0650   1401.95702     312.6366     351.8570
   1417.56676     287.9001     290.6448   1401.94176     312.5402     352.7656
   1417.55150     287.5370     290.7518   1401.92650     312.2966     352.5071
   1417.53625     287.3440     290.6446   1401.91125     312.3572     352.6560
   1417.52099     287.0425     290.5541   1401.89599     312.9498     353.2863
   1417.50573     286.2159     290.5298   1401.88073     312.4928     353.6838
   1417.49047     285.8636     290.6367   1401.86547     312.7500     354.4037
   1417.47521     285.3235     290.0969   1401.85021     312.7608     354.2171
   1417.45995     285.1078     290.1840   1401.83495     312.2697     354.5531
   1417.44469     284.8413     290.0375   1401.81969     312.2987     355.4528
   1417.42943     284.6762     289.6154   1401.80443     312.6987     355.3176
   1417.41417     284.0243     289.9244   1401.78917     312.0397     355.7931
   1417.39892     283.5947     289.7610   1401.77392     312.2188     356.1877
   1417.38366     282.9887     289.7292   1401.75866     312.5421     356.6262
   1417.36840     282.6663     289.7179   1401.74340     312.6237     356.6910
   1417.35314     282.5763     289.0047   1401.72814     312.5367     357.2453
   1417.33788     281.9883     289.4807   1401.71288     312.3173     357.3397
   1417.32262     281.6998     288.8146   1401.69762     312.1834     357.8219
   1417.30736     280.8589     288.7260   1401.68236     312.0498     358.3941
   1417.29210     280.3716     288.5870   1401.66710     312.4513     358.6201
   1417.27685     279.7726     288.3021   1401.65185     312.2513     358.6176
   1417.26159     279.2200     287.8888   1401.63659     312.2651     358.8426
   1417.24633     279.4022     288.4515   1401.62133     312.1053     359.4218
   1417.23107     278.7819     288.0818   1401.60607     311.6422     359.9394
   1417.21581     278.5839     287.8293   1401.59081     311.8707     359.9454
   1417.20055     277.9748     287.8290   1401.57555     312.0016     360.2197
   1417.18529     276.9273     287.3572   1401.56029     311.4582     360.4399
   1417.17003     276.6841     287.3441   1401.54503     312.0388     360.0102
   1417.15478     276.4608     287.2544   1401.52978     311.5425     360.8462
   1417.13952     275.9432     287.0862   1401.51452     311.7445     361.0776
   1417.12426     275.1866     286.5961   1401.49926     311.6939     361.5901
   1417.10900     274.4862     286.8066   1401.48400     311.2117     361.6287
   1417.09374     274.2317     286.4213   1401.46874     311.2698     361.6888
   1417.07848     273.6857     285.9867   1401.45348     311.2982     361.6889
   1417.06322     273.0380     286.0424   1401.43822     310.8338     361.8033
   1417.04796     272.6816     285.8515   1401.42296     311.0623     362.2905
   1417.03271     272.0419     285.5876   1401.40771     310.6472     362.7454
   1417.01745     271.4218     285.4944   1401.39245     311.0861     362.7750
   1417.00219     271.0108     284.8586   1401.37719     310.6195     362.7477
   1416.98693     270.3483     284.9623   1401.36193     310.0929     362.7031
   1416.97167     269.6840     284.5713   1401.34667     310.4855     363.3113
   1416.95641     269.2422     284.4301   1401.33141     310.3862     363.3532
   1416.94115     268.7896     284.2611   1401.31615     310.2482     362.8331
   1416.92589     267.9358     283.8115   1401.30089     309.9054     363.5005
   1416.91063     267.2797     283.5689   1401.28563     309.4595     363.6018
   1416.89538     267.0080     282.9284   1401.27038     308.9922     363.7992
   1416.88012     266.4720     282.6869   1401.25512     309.5053     363.6653
   1416.86486     265.6378     282.7638   1401.23986     308.8126     363.6343
   1416.84960     265.0634     282.8205   1401.22460     309.0457     363.9685
   1416.83434     264.4295     281.9639   1401.20934     308.6951     363.8306
   1416.81908     263.9344     281.8596   1401.19408     308.1155     363.8771
   1416.80382     263.5524     281.2902   1401.17882     308.0753     363.9325
   1416.78856     262.7005     281.1838   1401.16356     307.8464     364.2285
   1416.77331     261.9074     280.4856   1401.14831     307.7774     363.6247
   1416.75805     261.0868     280.2361   1401.13305     307.0699     363.9374
   1416.74279     260.3944     280.1026   1401.11779     306.9474     363.8368
   1416.72753     259.7941     279.4645   1401.10253     306.8951     363.8403
   1416.71227     259.2870     279.1949   1401.08727     306.4004     363.3389
   1416.69701     258.3572     278.8247   1401.07201     306.3991     363.7594
   1416.68175     257.9891     278.3744   1401.05675     306.1105     363.3878
   1416.66649     257.3168     278.0638   1401.04149     305.7102     363.5954
   1416.65124     256.2585     277.7511   1401.02624     305.2284     363.5570
   1416.63598     255.6636     277.2368   1401.01098     304.8204     363.3998
   1416.62072     254.8761     276.5220   1400.99572     304.4289     363.1464
   1416.60546     254.4010     276.3613   1400.98046     304.2713     363.0818
   1416.59020     253.5837     276.1197   1400.96520     304.0173     362.8880
   1416.57494     252.4515     275.4178   1400.94994     303.8985     362.7924
   1416.55968     252.1938     275.2324   1400.93468     303.4557     362.4298
   1416.54442     251.2426     274.7271   1400.91942     302.7521     362.4438
   1416.52917     250.4370     274.2483   1400.90417     302.4519     361.7333
   1416.51391     249.6788     273.6545   1400.88891     301.8780     361.6316
   1416.49865     249.2289     272.6766   1400.87365     301.1903     361.5629
   1416.48339     248.3682     272.5577   1400.85839     300.6267     361.2045
   1416.46813     247.4114     271.9939   1400.84313     301.2934     360.7895
   1416.45287     246.6953     271.5204   1400.82787     300.5075     360.6459
   1416.43761     245.7102     270.8284   1400.81261     299.8012     360.3467
   1416.42235     245.1412     270.2804   1400.79735     299.2340     359.9619
   1416.40709     244.3684     270.0272   1400.78209     298.8349     359.6032
   1416.39184     243.3465     269.2679   1400.76684     298.5175     359.0200
   1416.37658     242.6196     268.6161   1400.75158     297.8095     358.8034
   1416.36132     241.9181     268.3114   1400.73632     297.2578     357.9765
   1416.34606     240.7733     267.7258   1400.72106     296.5743     358.2766
   1416.33080     239.9834     266.8681   1400.70580     296.4065     357.4638
   1416.31554     239.3830     266.0471   1400.69054     295.6216     356.8029
   1416.30028     238.3503     265.3487   1400.67528     295.0074     356.5539
   1416.28502     237.4362     264.6778   1400.66002     294.2437     356.0932
   1416.26977     236.4427     264.5844   1400.64477     294.0469     355.2468
   1416.25451     235.5869     263.8849   1400.62951     293.0844     354.8374
   1416.23925     234.7130     262.7615   1400.61425     292.6988     353.9038
   1416.22399     233.9616     262.3899   1400.59899     291.9688     354.1525
   1416.20873     233.0219     261.5105   1400.58373     291.3515     353.3297
   1416.19347     231.9708     260.7712   1400.56847     290.6187     352.7422
   1416.17821     231.1224     260.0714   1400.55321     290.0671     351.9940
   1416.16295     230.5158     259.5534   1400.53795     289.6022     351.2334
   1416.14770     229.4498     258.3273   1400.52270     288.6680     350.5849
   1416.13244     228.4085     257.6137   1400.50744     287.9192     349.9556
   1416.11718     227.3420     257.2359   1400.49218     287.1294     349.3867
   1416.10192     226.6455     256.4689   1400.47692     286.4420     348.7805
   1416.08666     225.7300     255.5488   1400.46166     285.8904     347.7768
   1416.07140     224.7447     254.6264   1400.44640     285.1355     347.0638
   1416.05614     223.4768     253.9404   1400.43114     284.1305     346.6205
   1416.04088     222.8022     252.8436   1400.41588     283.7543     345.4322
   1416.02562     221.5258     252.3488   1400.40062     282.7319     344.8287
   1416.01037     220.6817     251.5328   1400.38537     281.9123     344.0283
   1415.99511     219.8972     250.6335   1400.37011     281.2759     343.0941
   1415.97985     218.8733     249.9907   1400.35485     280.4951     342.0149
   1415.96459     218.0354     248.8513   1400.33959     279.4507     341.5438
   1415.94933     217.1529     248.1196   1400.32433     278.2845     340.5081
   1415.93407     215.7404     246.6579   1400.30907     277.9989     339.3423
   1415.91881     214.8606     246.1971   1400.29381     276.7638     338.6185
   1415.90355     213.8575     245.4201   1400.27855     276.0085     337.5410
   1415.88830     212.8568     244.5133   1400.26330     274.8858     336.7082
   1415.87304     211.8870     243.4136   1400.24804     274.4463     335.7433
   1415.85778     210.7558     242.6907   1400.23278     273.3362     334.7278
   1415.84252     209.8953     241.8058   1400.21752     272.2455     333.9661
   1415.82726     208.6609     240.7423   1400.20226     271.6102     332.8522
   1415.81200     207.5454     239.5936   1400.18700     270.3207     331.8112
   1415.79674     206.6785     238.4628   1400.17174     269.8947     330.8944
   1415.78148     205.8469     237.8016   1400.15648     268.3480     329.8209
   1415.76623     204.3275     236.8389   1400.14123     267.5881     328.7668
   1415.75097     203.5223     235.7326   1400.12597     266.5089     327.6693
   1415.73571     202.6522     234.8432   1400.11071     265.3000     326.7132
   1415.72045     201.4965     233.9022   1400.09545     264.7127     325.2632
   1415.70519     200.3609     232.8189   1400.08019     263.8443     323.8440
   1415.68993     199.6324     231.6831   1400.06493     262.5346     323.2461
   1415.67467     198.5983     230.7379   1400.04967     261.7765     321.8813
   1415.65941     197.1946     229.8044   1400.03441     260.3112     320.4287
   1415.64416     196.2739     228.6811   1400.01916     259.5625     319.3402
   1415.62890     195.3262     227.4847   1400.00390     268.4494     319.8324
   1415.61364     194.2730     226.3791   1399.98864     257.3611     317.4050
   1415.59838     193.1940     225.5920   1399.97338     256.2493     315.7583
   1415.58312     192.2172     224.2991   1399.95812     255.2012     314.4529
   1415.56786     191.2233     223.3333   1399.94286     254.2584     313.1461
   1415.55260     190.1784     222.1771   1399.92760     253.1089     312.0541
   1415.53734     189.0052     221.1494   1399.91234     251.8661     310.6219
   1415.52208     188.0631     220.2177   1399.89708     250.8498     309.2829
   1415.50683     186.7952     219.0132   1399.88183     249.3675     308.1863
   1415.49157     185.8481     217.9227   1399.86657     248.7156     306.5693
   1415.47631     184.7347     216.7247   1399.85131     247.3646     305.3733
   1415.46105     183.7046     215.6451   1399.83605     246.2853     304.2502
   1415.44579     182.4678     214.4167   1399.82079     245.1465     302.5637
   1415.43053     181.4669     213.3678   1399.80553     244.0568     301.2650
   1415.41527     180.5521     212.3187   1399.79027     242.5928     299.5285
   1415.40001     179.7083     211.3084   1399.77501     241.5247     298.2856
   1415.38476     178.3704     209.8222   1399.75976     240.4044     297.0824
   1415.36950     177.5411     208.8158   1399.74450     238.9562     295.5103
   1415.35424     176.4908     207.8918   1399.72924     237.8968     294.3289
   1415.33898     175.2230     206.6668   1399.71398     236.4781     292.9303
   1415.32372     174.3692     205.4062   1399.69872     235.8675     291.3615
   1415.30846     173.3875     204.2501   1399.68346     234.4061     289.8078
   1415.29320     172.3796     203.5023   1399.66820     233.2909     288.5504
   1415.27794     171.1411     202.3223   1399.65294     231.8623     287.0183
   1415.26269     170.2030     200.8545   1399.63769     230.9067     285.4636
   1415.24743     169.2791     199.9156   1399.62243     229.6222     284.3601
   1415.23217     168.2721     198.4730   1399.60717     228.4019     282.6443
   1415.21691     167.3192     197.3945   1399.59191     227.3347     281.2888
   1415.20165     166.2437     196.3157   1399.57665     225.9995     279.8604
   1415.18639     165.3345     195.1814   1399.56139     224.8687     278.1880
   1415.17113     164.1565     194.0616   1399.54613     223.5752     276.7058
   1415.15587     163.2350     192.6744   1399.53087     222.2669     274.9590
   1415.14062     162.3347     191.5860   1399.51562     221.1652     273.9970
   1415.12536     161.4688     190.3040   1399.50036     219.7130     272.6005
   1415.11010     160.3682     189.1966   1399.48510     218.7609     270.6799
   1415.09484     159.2645     188.2601   1399.46984     217.3804     269.5920
   1415.07958     158.3600     186.9844   1399.45458     216.1414     267.6743
   1415.06432     157.5223     185.8453   1399.43932     214.9554     266.2423
   1415.04906     156.5794     184.8548   1399.42406     213.7287     264.7981
   1415.03380     155.5630     183.6073   1399.40880     212.8435     263.3780
   1415.01854     154.7842     182.4968   1399.39354     211.3152     261.9280
   1415.00329     153.8678     181.2886   1399.37829     210.2703     260.6138
   1414.98803     152.8816     180.0695   1399.36303     209.0605     259.0309
   1414.97277     151.9797     179.1336   1399.34777     207.8613     257.7374
   1414.95751     150.9995     177.8648   1399.33251     206.5186     256.1791
   1414.94225     150.1410     176.8082   1399.31725     205.5757     254.6682
   1414.92699     149.4486     175.6998   1399.30199     204.4426     253.4652
   1414.91173     148.3908     174.2394   1399.28673     203.1018     251.6101
   1414.89647     147.6155     173.5201   1399.27147     202.2026     250.4429
   1414.88122     146.8161     172.4005   1399.25622     200.6935     248.8131
   1414.86596     145.8813     171.0700   1399.24096     199.5512     247.6181
   1414.85070     145.1140     170.0025   1399.22570     198.4644     245.8722
   1414.83544     144.1789     168.7602   1399.21044     197.3464     244.9583
   1414.82018     143.3290     167.8023   1399.19518     196.2437     243.5061
   1414.80492     142.5648     166.9497   1399.17992     195.0843     242.2753
   1414.78966     141.8176     165.9481   1399.16466     193.9374     240.6050
   1414.77440     141.0208     164.6003   1399.14940     192.7139     238.9915
   1414.75915     140.0426     163.7384   1399.13415     191.7348     237.7931
   1414.74389     139.4748     162.6206   1399.11889     190.2593     236.4943
   1414.72863     138.8180     161.5668   1399.10363     189.4945     235.0480
   1414.71337     138.1833     160.5115   1399.08837     188.5075     233.7046
   1414.69811     137.2605     159.6213   1399.07311     187.3015     232.3664
   1414.68285     136.6053     158.4435   1399.05785     186.3059     231.1187
   1414.66759     135.8996     157.6131   1399.04259     185.1890     229.7785
   1414.65233     135.2156     156.4042   1399.02733     184.3258     228.7823
   1414.63708     134.5492     155.6729   1399.01208     183.1684     227.5377
   1414.62182     133.9960     154.7088   1398.99682     182.2323     226.1960
   1414.60656     133.3864     153.5848   1398.98156     181.1028     224.7845
   1414.59130     132.7517     152.4027   1398.96630     180.2277     223.5611
   1414.57604     132.1803     151.6672   1398.95104     179.3177     222.7002
   1414.56078     131.4955     150.5457   1398.93578     178.3296     221.0654
   1414.54552     130.9466     149.7214   1398.92052     177.1357     219.7230
   1414.53026     130.1288     148.9479   1398.90526     176.3604     219.1619
   1414.51500     129.4089     148.0239   1398.89000     175.3735     217.9847
   1414.49975     129.1228     147.1910   1398.87475     174.4416     216.7105
   1414.48449     128.5540     146.2054   1398.85949     173.6008     215.7248
   1414.46923     128.1213     145.5203   1398.84423     172.8439     214.5756
   1414.45397     127.5649     144.5956   1398.82897     172.0925     213.4236
   1414.43871     126.9814     143.6451   1398.81371     171.1773     212.5693
   1414.42345     126.5930     142.9389   1398.79845     170.3926     211.7029
   1414.40819     126.2355     142.1057   1398.78319     169.5724     210.6565
   1414.39293     125.6974     141.4156   1398.76793     168.4198     209.6783
   1414.37768     125.1918     140.3624   1398.75268     167.8277     208.3783
   1414.36242     124.9318     139.9513   1398.73742     167.1206     207.5702
   1414.34716     124.4268     138.9957   1398.72216     166.4034     206.7238
   1414.33190     123.9888     138.1794   1398.70690     165.6497     205.7752
   1414.31664     123.7123     137.3654   1398.69164     164.8184     204.8396
   1414.30138     123.2944     136.9826   1398.67638     164.1897     204.2055
   1414.28612     122.9350     136.1711   1398.66112     163.7417     203.3170
   1414.27086     122.6929     135.5898   1398.64586     162.9919     202.5543
   1414.25561     122.3030     134.9036   1398.63061     162.3416     201.8958
   1414.24035     122.2995     134.1291   1398.61535     161.7813     201.1533
   1414.22509     121.8119     133.4493   1398.60009     160.9325     200.3427
   1414.20983     121.5791     132.9735   1398.58483     160.6738     199.7405
   1414.19457     121.4046     132.3861   1398.56957     159.9360     199.2119
   1414.17931     121.1477     131.7356   1398.55431     159.3765     198.2315
   1414.16405     120.8483     131.2453   1398.53905     158.9342     197.6935
   1414.14879     120.6735     130.5629   1398.52379     158.3867     197.2572
   1414.13354     120.4648     130.0677   1398.50854     158.1230     196.5201
   1414.11828     120.5575     129.5899   1398.49328     157.4876     196.0434
   1414.10302     120.2753     129.0325   1398.47802     157.1705     195.6015
   1414.08776     120.2037     128.5385   1398.46276     156.5400     195.0397
