#     FILENAME=Skynet_60333_barnard_33-nb_107271_56634.A.spect.cal.txt
#     BASENAME=Skynet_60333_barnard_33-nb_107271_56634
#      CONTROL=SKYNET
#     PROJCODE=Skynet_60333_barnard_33-nb_107271
#     DATAROOT=/raid/scratch/cyborg/SkynetData
#      DATADIR=/raid/scratch/cyborg
#     DATADIR2=/raid/scratch/cyborg/SkynetData/Skynet_60333_barnard_33-nb_1072
#     SCANNAME=2019_06_26_10
#     SRC_NAME=barnard_33-nb
#     OBSERVER=socamrad_21318
#     DATE_OBS=2024-01-24T03:19:52.000
#        OBSID=107271
#      SCANNUM=56634
#          MJD=60333.1387963
#          UTC=11992
#     SCANTYPE=ralongmap
#     DATAMODE=HIRES
#     RECEIVER=Rx1_2
#      OBSFREQ=1395.0000
# Actual_FREQ1=1421.8850,
# Actual_FREQ2=1406.2600
#    LO1Tuning=6856.2600
#     RFFILTER=1355_1435
#        OBSBW=-15.6250
#     EFFBANDW=15.6250
#        NCHAN=1024
#    STARTCHAN=51
#     STOPCHAN=972
#         TINT=0.1342
#         TBIN=0.00419430
#       ACCLEN=2048 
#     DURATION=176.09
#     EXPOSURE=118.38
#        FOCUS=37.049
#       RA,DEC=05:32:14.91, -04:40:06.56
#      RA(deg)=85.17580
#     DEC(deg)=-2.44630
#   WIDTH(deg)=4.4307x4.8706
#    AZIM(deg)=191.5431
#    ELEV(deg)=48.3010
#     COORDREF=RA_DEC_
#         HREF=85.2454
#         VREF=-2.4583
#      RADESYS=FK5
#       OFFSYS=AZEL
#      EQUINOX=2000.00
#     IFATTENS=11.00, 12.00
#   BALANCELEV=1.200 
#   POWER_XLYR=[1.72, 2.23] 
#       VELDEF=RADI-OBS 
#     VELOCITY=0.000 
#         NPOL=2 
#      POLMODE=Linear 
#      POLTYPE=XXYY 
#      WARNING=None 
#     NOISECAL=HI 
#       PRECAL=2 
#      POSTCAL=2 
#     CRYOTEMP=289 
#      BOXTEMP=23 
#         TSYS=XX1:134.40, YY1:135.12
#         TSYS=XX2:121.55, YY2:146.84
#         TCAL=XX1:9.17, YY1:10.07
#         TCAL=XX2:9.16, YY2:9.99
# Calibrated spectra 
#                
#                
#Freq1(MHz)         XX1          YY1   Freq2(MHz)       XX2         YY2 
   1428.91930      71.2961      62.0859    1413.29430      65.5928      91.8792
   1428.90404      71.7182      62.2927    1413.27904      65.9440      92.1992
   1428.88878      71.9612      62.5442    1413.26378      66.0869      92.7150
   1428.87353      72.2809      62.7427    1413.24853      66.4360      93.0642
   1428.85827      72.6296      62.9157    1413.23327      66.7782      93.4811
   1428.84301      73.0632      63.0219    1413.21801      67.0422      94.0131
   1428.82775      73.3733      63.3091    1413.20275      67.2883      94.4261
   1428.81249      73.7384      63.5709    1413.18749      67.6439      94.7969
   1428.79723      74.0626      63.8477    1413.17223      67.9498      95.3002
   1428.78197      74.5129      64.1315    1413.15697      68.1186      95.8797
   1428.76671      74.8228      64.2281    1413.14171      68.4562      96.2641
   1428.75146      75.2281      64.5985    1413.12646      68.9382      96.8031
   1428.73620      75.6890      64.9309    1413.11120      69.2774      97.2341
   1428.72094      76.1385      65.1520    1413.09594      69.5468      97.8355
   1428.70568      76.4369      65.3340    1413.08068      69.8227      98.4249
   1428.69042      76.7758      65.6300    1413.06542      70.2726      98.7782
   1428.67516      77.2769      65.9739    1413.05016      70.5292      99.4755
   1428.65990      77.5494      66.2729    1413.03490      70.9650      99.8012
   1428.64464      78.0180      66.5530    1413.01964      71.2900     100.5029
   1428.62938      78.4885      66.7791    1413.00438      71.6957     100.8619
   1428.61413      78.8917      67.1219    1412.98913      72.1314     101.5633
   1428.59887      79.2119      67.4061    1412.97387      72.4428     102.1122
   1428.58361      79.7285      67.8286    1412.95861      72.8706     102.5689
   1428.56835      79.9938      68.1860    1412.94335      73.1682     103.2264
   1428.55309      80.4755      68.4427    1412.92809      73.4693     103.8373
   1428.53783      80.9105      68.6779    1412.91283      73.9973     104.4728
   1428.52257      81.2719      69.0551    1412.89757      74.4923     105.0571
   1428.50731      81.7993      69.4419    1412.88231      74.8154     105.4420
   1428.49206      82.2732      69.8660    1412.86706      75.1672     106.2827
   1428.47680      82.6381      70.1316    1412.85180      75.6831     106.8382
   1428.46154      83.0787      70.3846    1412.83654      76.0711     107.5107
   1428.44628      83.4231      70.9006    1412.82128      76.3302     108.0601
   1428.43102      83.8988      71.2155    1412.80602      76.8546     108.6388
   1428.41576      84.3960      71.4956    1412.79076      77.2793     109.1336
   1428.40050      84.7776      71.8686    1412.77550      77.7189     109.8632
   1428.38524      85.2145      72.3555    1412.76024      78.1019     110.3742
   1428.36999      85.6354      72.6003    1412.74499      78.4098     110.9836
   1428.35473      86.0971      72.9850    1412.72973      78.9888     111.7095
   1428.33947      86.5610      73.3228    1412.71447      79.4214     112.2503
   1428.32421      86.9707      73.6776    1412.69921      79.7361     112.9421
   1428.30895      87.3481      74.1704    1412.68395      80.1691     113.5009
   1428.29369      87.9146      74.4592    1412.66869      80.7199     114.1654
   1428.27843      88.1358      74.8722    1412.65343      81.0447     114.8945
   1428.26317      88.7642      75.2098    1412.63817      81.4260     115.6082
   1428.24792      89.1572      75.6063    1412.62292      82.0538     116.1857
   1428.23266      89.5557      76.0156    1412.60766      82.4595     116.7160
   1428.21740      89.9110      76.4931    1412.59240      82.9448     117.4481
   1428.20214      90.4597      76.7400    1412.57714      83.3290     117.9749
   1428.18688      91.0063      77.1966    1412.56188      83.7823     118.6470
   1428.17162      91.3303      77.5774    1412.54662      84.2916     119.4910
   1428.15636      91.8976      77.9874    1412.53136      84.7113     120.0858
   1428.14110      92.1272      78.3629    1412.51610      85.0423     120.7630
   1428.12584      92.5210      78.8254    1412.50084      85.4498     121.4223
   1428.11059      92.9455      79.2257    1412.48559      85.8198     121.8139
   1428.09533      93.5291      79.6129    1412.47033      86.4192     122.5367
   1428.08007      93.8310      80.0184    1412.45507      86.7316     123.1975
   1428.06481      94.4802      80.3307    1412.43981      87.2215     123.7846
   1428.04955      94.7030      80.7142    1412.42455      87.6488     124.4364
   1428.03429      95.1038      81.2032    1412.40929      88.2358     125.0369
   1428.01903      95.4886      81.6240    1412.39403      88.6874     125.6440
   1428.00377      95.8871      81.9605    1412.37877      89.1201     126.3103
   1427.98852      96.3588      82.4804    1412.36352      89.5901     126.8134
   1427.97326      96.7128      82.8147    1412.34826      89.9706     127.5872
   1427.95800      97.0598      83.3786    1412.33300      90.2671     128.2207
   1427.94274      97.5463      83.6998    1412.31774      90.8045     128.8426
   1427.92748      97.9973      84.1967    1412.30248      91.3144     129.4667
   1427.91222      98.3163      84.5148    1412.28722      91.6590     130.2457
   1427.89696      98.6972      84.9186    1412.27196      92.1750     130.4741
   1427.88170      99.1293      85.4651    1412.25670      92.5079     131.3528
   1427.86645      99.5499      85.7395    1412.24145      92.8851     131.8792
   1427.85119     100.1380      86.1592    1412.22619      93.2805     132.4904
   1427.83593     100.3642      86.6528    1412.21093      93.8007     133.1706
   1427.82067     100.7773      86.8535    1412.19567      94.2090     133.8517
   1427.80541     100.9947      87.3143    1412.18041      94.6803     134.3022
   1427.79015     101.5353      87.8923    1412.16515      95.0981     134.9848
   1427.77489     101.8326      88.1659    1412.14989      95.4383     135.5565
   1427.75963     102.2850      88.5644    1412.13463      95.9772     136.1793
   1427.74437     102.6837      88.9746    1412.11937      96.3167     136.5669
   1427.72912     102.9442      89.3641    1412.10412      96.6872     137.1544
   1427.71386     103.2053      89.7579    1412.08886      97.2299     137.8275
   1427.69860     103.6278      90.1799    1412.07360      97.5812     138.4598
   1427.68334     103.9100      90.6662    1412.05834      98.0651     139.1080
   1427.66808     104.3458      90.9524    1412.04308      98.4105     139.6514
   1427.65282     104.7472      91.3186    1412.02782      98.9762     140.0084
   1427.63756     105.1215      91.8402    1412.01256      99.2206     140.9047
   1427.62230     105.3179      92.1383    1411.99730      99.7006     141.2942
   1427.60705     105.6632      92.7113    1411.98205     100.0042     141.7904
   1427.59179     106.1710      92.9456    1411.96679     100.3899     142.4475
   1427.57653     106.3442      93.2816    1411.95153     100.8280     142.6694
   1427.56127     106.6660      93.6912    1411.93627     101.2983     143.3869
   1427.54601     106.9026      93.9955    1411.92101     101.6114     143.7474
   1427.53075     107.2805      94.5864    1411.90575     101.9408     144.3357
   1427.51549     107.4903      94.9956    1411.89049     102.4391     144.9935
   1427.50023     108.0598      95.3513    1411.87523     102.6748     145.4419
   1427.48498     108.2925      95.6316    1411.85998     103.0732     146.1399
   1427.46972     108.4575      96.0839    1411.84472     103.3869     146.4293
   1427.45446     108.7370      96.4544    1411.82946     103.9850     146.6396
   1427.43920     109.0923      96.8333    1411.81420     104.2962     147.3413
   1427.42394     109.3305      97.1032    1411.79894     104.7387     147.5904
   1427.40868     109.5802      97.4998    1411.78368     105.0329     148.3473
   1427.39342     109.9503      97.8315    1411.76842     105.3093     148.7276
   1427.37816     110.1892      98.1469    1411.75316     105.6884     149.2571
   1427.36291     110.4291      98.7192    1411.73791     106.1762     149.4319
   1427.34765     110.7047      98.8846    1411.72265     106.4961     150.1353
   1427.33239     110.9858      99.4197    1411.70739     106.9174     150.4228
   1427.31713     111.3815      99.8087    1411.69213     107.1126     151.0233
   1427.30187     111.4267     100.0071    1411.67687     107.6243     151.4860
   1427.28661     111.6664     100.4398    1411.66161     107.8590     151.6703
   1427.27135     111.8919     100.7984    1411.64635     108.1004     152.0470
   1427.25609     112.2513     101.1452    1411.63109     108.4435     152.8847
   1427.24083     112.4554     101.5431    1411.61583     108.7392     153.0228
   1427.22558     112.7497     101.9453    1411.60058     109.3249     153.3205
   1427.21032     112.8326     102.2475    1411.58532     109.6312     153.7463
   1427.19506     113.2442     102.7090    1411.57006     109.8021     154.3938
   1427.17980     113.5003     102.8789    1411.55480     110.1384     154.5830
   1427.16454     113.6433     103.3117    1411.53954     110.3888     155.2038
   1427.14928     113.8555     103.5828    1411.52428     110.7553     155.1421
   1427.13402     114.0321     103.8889    1411.50902     111.1632     155.5432
   1427.11876     114.2332     104.1981    1411.49376     111.4527     156.0770
   1427.10351     114.4115     104.5701    1411.47851     111.6906     156.2961
   1427.08825     114.7112     105.0399    1411.46325     112.0678     156.7850
   1427.07299     114.8325     105.2467    1411.44799     112.2328     157.2989
   1427.05773     115.0426     105.5869    1411.43273     112.5774     157.5277
   1427.04247     115.1619     105.9240    1411.41747     112.8642     157.5828
   1427.02721     115.2636     106.1410    1411.40221     113.0165     158.2666
   1427.01195     115.5774     106.4564    1411.38695     113.3780     158.3088
   1426.99669     115.7674     106.8242    1411.37169     113.5434     158.7340
   1426.98144     116.0329     107.0924    1411.35644     113.9724     158.9114
   1426.96618     116.1604     107.3536    1411.34118     114.1970     159.5734
   1426.95092     116.2352     107.9857    1411.32592     114.4514     159.6250
   1426.93566     116.2554     108.1953    1411.31066     114.7202     159.8878
   1426.92040     116.5837     108.4217    1411.29540     115.1157     160.3860
   1426.90514     116.7764     108.6170    1411.28014     115.3107     160.4427
   1426.88988     116.8056     109.0509    1411.26488     115.5280     160.7954
   1426.87462     117.0075     109.4392    1411.24962     115.8614     161.0377
   1426.85937     117.3448     109.6086    1411.23437     115.9774     161.1570
   1426.84411     117.4843     109.9427    1411.21911     116.3321     161.6085
   1426.82885     117.4949     110.3245    1411.20385     116.5301     161.5355
   1426.81359     117.7322     110.5024    1411.18859     116.8778     162.0852
   1426.79833     117.7127     110.9321    1411.17333     117.0742     162.0950
   1426.78307     117.7310     111.1088    1411.15807     117.4059     162.5556
   1426.76781     118.2448     111.3638    1411.14281     117.5966     162.7156
   1426.75255     118.2129     111.8025    1411.12755     117.8442     162.8926
   1426.73729     118.3198     112.0001    1411.11229     117.9995     163.2068
   1426.72204     118.4139     112.0658    1411.09704     118.1713     163.2537
   1426.70678     118.6423     112.5914    1411.08178     118.4174     163.6697
   1426.69152     118.6643     112.8384    1411.06652     118.5952     163.6917
   1426.67626     118.8038     113.0783    1411.05126     118.8610     163.7706
   1426.66100     119.0034     113.3319    1411.03600     119.0670     163.9411
   1426.64574     119.0598     113.6876    1411.02074     119.3469     164.1834
   1426.63048     119.2053     114.1226    1411.00548     119.4638     164.5882
   1426.61522     119.4582     114.2332    1410.99022     119.7493     164.7633
   1426.59997     119.3334     114.3906    1410.97497     119.7218     164.6911
   1426.58471     119.7538     114.8307    1410.95971     120.1387     164.9667
   1426.56945     119.5108     114.9894    1410.94445     120.3999     165.1474
   1426.55419     119.6771     115.2043    1410.92919     120.5464     165.2420
   1426.53893     119.8753     115.4321    1410.91393     120.7283     165.4119
   1426.52367     119.8548     115.8388    1410.89867     120.8960     165.5814
   1426.50841     119.9632     116.0712    1410.88341     120.9471     165.6547
   1426.49315     119.9507     116.3912    1410.86815     121.2804     165.9406
   1426.47790     120.2085     116.5324    1410.85290     121.3720     166.1570
   1426.46264     120.2016     116.7704    1410.83764     121.6283     166.0301
   1426.44738     120.2335     117.1175    1410.82238     121.9326     166.0388
   1426.43212     120.4689     117.2903    1410.80712     122.0206     166.4092
   1426.41686     120.5908     117.6235    1410.79186     122.2581     166.6473
   1426.40160     120.4866     117.7387    1410.77660     122.3684     166.5847
   1426.38634     120.7219     118.0788    1410.76134     122.5118     166.7512
   1426.37108     120.7185     118.3736    1410.74608     122.7738     166.8797
   1426.35583     120.8754     118.6236    1410.73083     122.8885     166.9208
   1426.34057     120.7386     118.9760    1410.71557     123.1713     166.9690
   1426.32531     120.9532     119.2408    1410.70031     123.2071     166.9782
   1426.31005     121.1004     119.3280    1410.68505     123.4576     167.2771
   1426.29479     121.0776     119.5159    1410.66979     123.5297     167.2597
   1426.27953     121.1820     119.7905    1410.65453     123.8845     167.4517
   1426.26427     121.2985     120.1641    1410.63927     123.8254     167.4540
   1426.24901     121.4389     120.4104    1410.62401     124.2657     167.5249
   1426.23375     121.5717     120.3924    1410.60875     124.2694     167.7076
   1426.21850     121.4583     121.1013    1410.59350     124.4940     167.6136
   1426.20324     121.4818     121.1638    1410.57824     124.6261     167.5675
   1426.18798     121.4872     121.2259    1410.56298     124.7273     167.6696
   1426.17272     121.6838     121.7007    1410.54772     124.7968     167.9225
   1426.15746     121.6464     121.9637    1410.53246     125.0499     167.9072
   1426.14220     121.7255     122.0720    1410.51720     125.2003     167.9353
   1426.12694     121.8220     122.3985    1410.50194     125.4167     167.9444
   1426.11168     121.7855     122.6935    1410.48668     125.3946     167.7460
   1426.09643     122.0647     122.8440    1410.47143     125.6018     168.1007
   1426.08117     122.1240     123.1177    1410.45617     125.7409     168.2006
   1426.06591     122.1334     123.3625    1410.44091     125.7790     168.2292
   1426.05065     122.2113     123.5433    1410.42565     126.0732     168.2226
   1426.03539     122.3077     123.7642    1410.41039     126.1719     168.1814
   1426.02013     122.2819     124.0908    1410.39513     126.2476     168.2307
   1426.00487     122.5059     124.3314    1410.37987     126.3984     168.4071
   1425.98961     122.3641     124.5109    1410.36461     126.6098     168.2747
   1425.97436     122.4560     124.8565    1410.34936     126.8542     168.5931
   1425.95910     122.6325     124.9923    1410.33410     126.7388     168.5373
   1425.94384     122.7253     125.2194    1410.31884     126.9676     168.3418
   1425.92858     122.7290     125.4147    1410.30358     127.2177     168.6309
   1425.91332     122.7434     125.5431    1410.28832     127.3543     168.3590
   1425.89806     122.9511     125.7647    1410.27306     127.3951     168.3718
   1425.88280     122.8990     126.1720    1410.25780     127.5780     168.3371
   1425.86754     122.8586     126.2503    1410.24254     127.6729     168.3340
   1425.85229     122.9848     126.6868    1410.22729     128.0686     168.3763
   1425.83703     123.0134     126.7637    1410.21203     127.8239     168.2618
   1425.82177     123.1452     127.0138    1410.19677     128.0046     168.5788
   1425.80651     123.1320     127.2362    1410.18151     128.1833     168.3593
   1425.79125     123.2060     127.5762    1410.16625     128.3628     168.4452
   1425.77599     123.1039     128.0487    1410.15099     128.4047     168.5440
   1425.76073     123.4456     128.0565    1410.13573     128.5870     168.4372
   1425.74547     123.3756     128.2549    1410.12047     128.5284     168.2384
   1425.73021     123.5906     128.5228    1410.10521     128.7252     168.3636
   1425.71496     123.6357     128.9192    1410.08996     128.6730     168.4823
   1425.69970     123.6947     129.0444    1410.07470     129.0628     168.2355
   1425.68444     123.8604     129.2699    1410.05944     129.0425     168.2659
   1425.66918     123.7300     129.4786    1410.04418     129.2720     168.3418
   1425.65392     123.9504     129.6797    1410.02892     129.3783     168.4238
   1425.63866     123.9065     130.0238    1410.01366     129.4110     168.3377
   1425.62340     123.8868     130.1858    1409.99840     129.5865     168.4668
   1425.60814     124.1410     130.4105    1409.98314     129.7020     168.1964
   1425.59289     124.2268     130.5626    1409.96789     129.9142     168.4889
   1425.57763     124.2977     130.7242    1409.95263     129.8797     168.3602
   1425.56237     124.4600     130.9634    1409.93737     130.1872     168.4615
   1425.54711     124.3752     131.3620    1409.92211     130.2824     171.0331
   1425.53185     124.3532     131.4783    1409.90685     130.4488     168.2148
   1425.51659     124.5511     131.8009    1409.89159     130.3324     167.8689
   1425.50133     124.5212     132.1183    1409.87633     130.3011     168.2329
   1425.48607     124.8066     132.2193    1409.86107     130.5572     167.8491
   1425.47082     124.8820     132.6640    1409.84582     130.7645     167.8992
   1425.45556     124.8924     132.8491    1409.83056     130.9367     167.8614
   1425.44030     124.8107     133.0146    1409.81530     130.9623     167.8378
   1425.42504     124.9290     133.3448    1409.80004     131.0544     167.8099
   1425.40978     125.3605     133.3908    1409.78478     131.0775     167.6905
   1425.39452     125.2247     133.8076    1409.76952     131.2465     167.7094
   1425.37926     125.1473     133.9267    1409.75426     131.4361     167.6873
   1425.36400     125.2815     134.1125    1409.73900     131.6536     167.7626
   1425.34875     125.5395     134.5464    1409.72375     131.7060     167.6732
   1425.33349     125.5134     134.7807    1409.70849     131.6685     167.7008
   1425.31823     125.5345     134.9917    1409.69323     131.9351     167.4270
   1425.30297     125.5890     134.9819    1409.67797     131.8624     167.6170
   1425.28771     125.5874     135.2397    1409.66271     132.2009     167.3879
   1425.27245     125.7933     135.5083    1409.64745     132.3177     167.2027
   1425.25719     125.9231     135.9796    1409.63219     132.3486     167.3952
   1425.24193     126.0320     136.0477    1409.61693     132.5351     167.1754
   1425.22667     125.9864     136.4898    1409.60167     132.4114     167.2519
   1425.21142     126.2544     136.6302    1409.58642     132.6676     167.0896
   1425.19616     126.3080     136.8157    1409.57116     132.7894     166.8608
   1425.18090     126.5043     137.1252    1409.55590     132.6622     167.1661
   1425.16564     126.4439     137.3185    1409.54064     132.9280     166.8527
   1425.15038     126.4444     137.5109    1409.52538     133.0354     166.8510
   1425.13512     126.7771     137.6758    1409.51012     133.1397     166.8923
   1425.11986     126.6254     137.9810    1409.49486     133.4718     166.7966
   1425.10460     126.8389     138.2996    1409.47960     133.3132     166.7858
   1425.08935     127.0435     138.5867    1409.46435     133.5712     166.5808
   1425.07409     127.1428     138.8864    1409.44909     133.5368     166.5186
   1425.05883     127.0578     139.2774    1409.43383     133.7297     166.5812
   1425.04357     127.2749     139.5045    1409.41857     133.7414     166.4371
   1425.02831     127.3038     139.4993    1409.40331     133.7653     166.2628
   1425.01305     127.5874     139.7348    1409.38805     134.1124     166.3647
   1424.99779     127.5897     139.9533    1409.37279     133.8956     166.0692
   1424.98253     127.7178     140.1950    1409.35753     134.1494     166.2757
   1424.96728     127.7148     140.5796    1409.34228     134.2708     165.8480
   1424.95202     127.8811     140.9932    1409.32702     134.4488     166.1939
   1424.93676     128.0768     141.1999    1409.31176     134.4462     165.6577
   1424.92150     128.0660     141.3202    1409.29650     134.5792     165.6627
   1424.90624     128.2366     141.6536    1409.28124     134.5882     165.6808
   1424.89098     128.2876     141.6344    1409.26598     134.6650     165.7385
   1424.87572     128.4545     142.1267    1409.25072     134.7350     165.4606
   1424.86046     128.4375     142.1379    1409.23546     135.0674     165.5185
   1424.84521     128.6689     142.4678    1409.22021     135.0801     165.2323
   1424.82995     128.6811     142.6317    1409.20495     135.2165     165.1393
   1424.81469     128.9112     142.8859    1409.18969     135.2026     165.3133
   1424.79943     128.9729     143.2323    1409.17443     135.4010     165.1668
   1424.78417     129.0826     143.4891    1409.15917     135.2487     165.1389
   1424.76891     129.4876     143.4946    1409.14391     135.5034     165.1176
   1424.75365     129.2761     143.8030    1409.12865     135.5115     164.7674
   1424.73839     129.4112     143.9843    1409.11339     135.5416     164.9908
   1424.72313     129.5591     144.7182    1409.09813     135.7176     164.6646
   1424.70788     129.6832     144.6577    1409.08288     135.6798     164.8163
   1424.69262     129.6858     144.6514    1409.06762     135.9712     164.3467
   1424.67736     129.9020     145.0136    1409.05236     136.0338     164.3037
   1424.66210     129.9910     145.2567    1409.03710     136.6081     164.8971
   1424.64684     130.0601     145.5559    1409.02184     136.1242     164.2973
   1424.63158     130.3361     145.9342    1409.00658     136.2252     163.9431
   1424.61632     130.4770     145.7708    1408.99132     136.5034     164.0379
   1424.60106     130.5944     146.2201    1408.97606     136.4970     164.1255
   1424.58581     130.6281     146.6372    1408.96081     136.5739     163.9570
   1424.57055     130.7032     146.7778    1408.94555     136.6753     163.7395
   1424.55529     131.0118     147.1039    1408.93029     136.6021     163.7423
   1424.54003     130.8261     147.2201    1408.91503     136.7633     163.6404
   1424.52477     131.2059     147.3521    1408.89977     136.7262     163.3722
   1424.50951     131.3286     147.7913    1408.88451     136.7356     163.3244
   1424.49425     131.2052     147.8748    1408.86925     137.0269     163.3165
   1424.47899     131.3868     148.2154    1408.85399     137.0406     163.3438
   1424.46374     131.7875     148.2580    1408.83874     137.1561     162.9981
   1424.44848     131.7948     148.5621    1408.82348     137.0799     163.1829
   1424.43322     131.8838     148.8628    1408.80822     137.2049     163.0686
   1424.41796     132.0665     149.0220    1408.79296     137.4036     162.8511
   1424.40270     132.0150     149.2337    1408.77770     137.4723     162.6680
   1424.38744     132.2900     149.5466    1408.76244     137.3856     162.4045
   1424.37218     132.5329     149.7783    1408.74718     137.7594     162.3841
   1424.35692     132.5704     149.9588    1408.73192     137.4988     162.4364
   1424.34167     132.5294     150.1255    1408.71667     137.8473     162.3574
   1424.32641     132.9217     150.3565    1408.70141     137.8079     162.0596
   1424.31115     132.8790     150.8553    1408.68615     137.9781     162.1860
   1424.29589     132.9601     151.1191    1408.67089     138.0871     162.1038
   1424.28063     133.2148     151.1660    1408.65563     137.9687     161.7423
   1424.26537     133.3307     151.1299    1408.64037     137.8229     161.8468
   1424.25011     133.4402     151.7378    1408.62511     137.9795     161.8509
   1424.23485     133.6004     151.7035    1408.60985     138.2328     161.7181
   1424.21959     133.5103     151.8301    1408.59459     138.1850     161.3352
   1424.20434     133.7961     152.2983    1408.57934     138.3080     161.3523
   1424.18908     134.0155     152.4183    1408.56408     138.5028     161.1578
   1424.17382     134.2646     152.5627    1408.54882     138.3747     161.1873
   1424.15856     134.2676     152.5611    1408.53356     138.3390     161.1126
   1424.14330     134.5447     153.0622    1408.51830     138.3643     160.7150
   1424.12804     134.4952     153.0798    1408.50304     138.4411     160.8056
   1424.11278     134.6027     153.3511    1408.48778     138.7057     160.7604
   1424.09752     134.7205     153.8439    1408.47252     138.7442     160.6457
   1424.08227     134.8937     153.8149    1408.45727     138.7510     160.3222
   1424.06701     134.9211     153.7567    1408.44201     138.6066     160.3618
   1424.05175     135.1211     154.1222    1408.42675     138.8951     160.1107
   1424.03649     135.3451     154.2833    1408.41149     138.9057     159.9989
   1424.02123     135.5274     154.4949    1408.39623     138.9382     159.6879
   1424.00597     135.7149     154.7591    1408.38097     139.0727     159.4942
   1423.99071     135.8479     155.0997    1408.36571     139.0645     159.8903
   1423.97545     135.9393     155.1970    1408.35045     138.9135     159.5354
   1423.96020     136.0705     155.5108    1408.33520     138.9598     159.5057
   1423.94494     136.1202     155.7119    1408.31994     139.1875     159.1912
   1423.92968     136.3108     155.9487    1408.30468     139.3141     159.3545
   1423.91442     136.5425     155.9785    1408.28942     139.3703     159.1319
   1423.89916     136.5767     156.1349    1408.27416     139.3820     158.8838
   1423.88390     136.6048     156.4295    1408.25890     139.3098     158.8539
   1423.86864     136.8140     156.5203    1408.24364     139.3156     158.6707
   1423.85338     136.9332     156.7081    1408.22838     139.4919     158.5846
   1423.83812     136.8576     157.0456    1408.21312     139.2002     158.4328
   1423.82287     137.1162     157.3626    1408.19787     139.4215     158.1646
   1423.80761     137.3864     157.2985    1408.18261     139.4031     158.2228
   1423.79235     137.4989     157.2504    1408.16735     139.6142     157.7389
   1423.77709     137.6715     157.5102    1408.15209     139.4480     157.6607
   1423.76183     137.7996     157.9847    1408.13683     139.6366     157.6637
   1423.74657     137.8818     158.1969    1408.12157     139.5260     157.2608
   1423.73131     138.1185     158.1430    1408.10631     139.4640     157.4299
   1423.71605     138.1112     158.2489    1408.09105     139.4574     157.2956
   1423.70080     138.3209     158.4601    1408.07580     139.5523     157.1471
   1423.68554     138.4047     158.7281    1408.06054     139.6533     156.8725
   1423.67028     138.6595     158.8674    1408.04528     139.7642     156.7814
   1423.65502     138.5982     159.0008    1408.03002     139.6134     156.6543
   1423.63976     138.8043     159.1219    1408.01476     139.5428     156.6106
   1423.62450     138.9689     159.4699    1407.99950     139.8196     156.5202
   1423.60924     139.1573     159.2975    1407.98424     139.7019     156.2797
   1423.59398     139.1240     159.5956    1407.96898     139.8232     156.0072
   1423.57873     139.2520     159.7903    1407.95373     139.7843     156.1747
   1423.56347     139.5246     159.8444    1407.93847     139.8941     155.8524
   1423.54821     139.5537     160.0033    1407.92321     139.6070     155.8309
   1423.53295     139.5627     160.1238    1407.90795     139.8128     155.4552
   1423.51769     140.0916     160.2295    1407.89269     139.7069     155.5325
   1423.50243     140.0065     160.3705    1407.87743     139.6422     155.4107
   1423.48717     140.2332     160.6225    1407.86217     139.9513     154.9702
   1423.47191     140.0702     160.9065    1407.84691     139.6351     154.8737
   1423.45666     140.4267     160.8878    1407.83166     139.8296     154.8715
   1423.44140     140.5231     161.0545    1407.81640     140.0003     154.7592
   1423.42614     140.5348     161.2692    1407.80114     139.5604     154.5345
   1423.41088     140.7923     161.1614    1407.78588     139.7760     154.3686
   1423.39562     140.8413     161.5033    1407.77062     139.8222     154.3940
   1423.38036     141.0254     161.6737    1407.75536     139.7896     153.9926
   1423.36510     141.1717     161.6936    1407.74010     139.5265     153.8856
   1423.34984     141.3469     161.5041    1407.72484     139.8206     153.7999
   1423.33458     141.4359     161.9625    1407.70958     139.6319     153.6093
   1423.31933     141.4431     161.9420    1407.69433     139.8133     153.3932
   1423.30407     141.4905     162.1463    1407.67907     139.5846     153.3077
   1423.28881     141.6312     162.2167    1407.66381     139.6659     153.1599
   1423.27355     141.7533     162.1584    1407.64855     139.8015     153.0371
   1423.25829     142.0152     162.6239    1407.63329     139.8879     152.5528
   1423.24303     141.9871     162.3764    1407.61803     139.6516     152.6644
   1423.22777     142.4012     162.6388    1407.60277     139.7986     152.4308
   1423.21251     142.4351     162.7740    1407.58751     139.6688     152.4254
   1423.19726     142.4860     162.7585    1407.57226     139.6030     152.1849
   1423.18200     142.6462     162.8302    1407.55700     139.5683     151.9965
   1423.16674     142.8771     162.9536    1407.54174     139.5389     152.0689
   1423.15148     142.8064     163.2563    1407.52648     139.6452     151.8072
   1423.13622     142.7542     163.0909    1407.51122     139.6078     151.4863
   1423.12096     143.2173     163.4261    1407.49596     139.2826     151.4563
   1423.10570     143.1586     163.2337    1407.48070     139.6053     151.3019
   1423.09044     143.3835     163.5558    1407.46544     139.6949     151.3062
   1423.07519     143.6398     163.4212    1407.45019     139.5193     151.0795
   1423.05993     143.6385     163.5698    1407.43493     139.3049     150.7078
   1423.04467     143.7841     163.8143    1407.41967     139.4190     150.6716
   1423.02941     143.9463     163.8925    1407.40441     139.3556     150.6054
   1423.01415     144.0115     164.0053    1407.38915     139.2539     150.3038
   1422.99889     144.1932     163.7896    1407.37389     139.2977     150.1636
   1422.98363     144.2212     164.0874    1407.35863     139.3982     149.9260
   1422.96837     144.3996     164.0286    1407.34337     139.1592     149.9706
   1422.95312     144.5829     164.1820    1407.32812     139.1366     149.9370
   1422.93786     144.7276     164.2391    1407.31286     139.2204     149.7586
   1422.92260     144.4942     164.2157    1407.29760     139.2249     149.3060
   1422.90734     144.8584     164.3474    1407.28234     139.1087     149.4311
   1422.89208     144.8994     164.7240    1407.26708     139.2882     149.1509
   1422.87682     145.0511     164.4858    1407.25182     139.0849     148.8961
   1422.86156     145.2601     164.5616    1407.23656     139.0982     148.7663
   1422.84630     145.4122     164.7346    1407.22130     138.9807     148.7606
   1422.83104     145.5582     164.5989    1407.20604     138.8817     148.4567
   1422.81579     145.6354     164.7706    1407.19079     138.7530     148.4056
   1422.80053     145.7653     164.8373    1407.17553     138.8201     148.1947
   1422.78527     145.9222     164.7289    1407.16027     138.7302     147.8395
   1422.77001     145.9538     164.9549    1407.14501     138.7214     147.8524
   1422.75475     146.1102     164.9245    1407.12975     138.9061     147.9511
   1422.73949     146.1740     164.8852    1407.11449     138.6635     147.5606
   1422.72423     146.3601     165.1009    1407.09923     138.7340     147.5298
   1422.70897     146.3868     165.2464    1407.08397     138.6797     147.1874
   1422.69372     146.4377     165.1520    1407.06872     138.4690     147.3951
   1422.67846     146.5733     165.0752    1407.05346     138.4405     146.9549
   1422.66320     146.9709     165.2669    1407.03820     138.4670     146.7323
   1422.64794     146.7935     165.2523    1407.02294     138.4431     146.5902
   1422.63268     147.0013     165.2210    1407.00768     138.4774     146.7855
   1422.61742     147.2311     165.2395    1406.99242     138.3317     146.6758
   1422.60216     147.3698     165.1771    1406.97716     138.4715     146.2879
   1422.58690     147.2472     165.1590    1406.96190     138.1312     145.9367
   1422.57165     147.6432     165.2771    1406.94665     138.2222     146.0635
   1422.55639     147.5991     165.6676    1406.93139     138.0229     145.9131
   1422.54113     147.7271     165.4987    1406.91613     138.1054     145.7200
   1422.52587     147.8829     165.6039    1406.90087     138.2570     145.4813
   1422.51061     147.9763     165.7050    1406.88561     138.0571     145.4809
   1422.49535     148.2312     165.4052    1406.87035     137.9711     145.2155
   1422.48009     148.4224     165.5425    1406.85509     137.7832     145.1010
   1422.46483     148.3537     165.6058    1406.83983     137.6270     144.9581
   1422.44958     148.3746     165.7193    1406.82458     137.6469     144.8408
   1422.43432     148.3725     165.3652    1406.80932     137.7069     144.5701
   1422.41906     148.9140     165.4950    1406.79406     137.6083     144.8727
   1422.40380     148.7596     165.7348    1406.77880     137.6443     144.4457
   1422.38854     148.7989     165.6983    1406.76354     137.5800     144.2662
   1422.37328     149.0551     165.7582    1406.74828     137.7214     144.1844
   1422.35802     149.0986     165.7303    1406.73302     137.6186     143.9337
   1422.34276     149.3666     165.6806    1406.71776     137.5058     143.8637
   1422.32750     149.3059     165.6846    1406.70250     137.1555     143.7406
   1422.31225     149.4558     165.5731    1406.68725     137.2765     143.4779
   1422.29699     149.6436     165.4388    1406.67199     137.2454     143.5735
   1422.28173     149.8210     165.5350    1406.65673     137.2178     143.2573
   1422.26647     149.8549     165.4860    1406.64147     137.0808     143.3296
   1422.25121     149.9343     165.6031    1406.62621     137.1029     143.1062
   1422.23595     150.1086     165.8090    1406.61095     136.9591     142.7482
   1422.22069     150.3764     165.6383    1406.59569     137.0041     142.7866
   1422.20543     150.3187     165.5728    1406.58043     136.7154     142.7212
   1422.19018     150.6076     165.6880    1406.56518     136.5083     142.5883
   1422.17492     150.5623     165.4420    1406.54992     136.7449     142.2626
   1422.15966     150.8435     165.5471    1406.53466     136.8308     142.1264
   1422.14440     150.9628     165.6299    1406.51940     136.6720     142.1902
   1422.12914     150.7877     165.5884    1406.50414     136.5423     141.8533
   1422.11388     151.0528     165.6553    1406.48888     136.5500     141.8669
   1422.09862     151.2201     165.5151    1406.47362     136.4522     141.6230
   1422.08336     151.3865     165.5781    1406.45836     136.1937     141.5326
   1422.06811     151.6381     165.3805    1406.44311     136.3178     141.3878
   1422.05285     151.5479     165.3455    1406.42785     136.1266     141.2679
   1422.03759     151.6874     165.5445    1406.41259     136.0755     141.1610
   1422.02233     151.7049     165.2756    1406.39733     135.8412     141.0558
   1422.00707     151.9567     165.2752    1406.38207     135.9043     140.9927
   1421.99181     151.8864     165.4235    1406.36681     135.9033     140.8555
   1421.97655     152.1706     165.2915    1406.35155     135.6154     140.8992
   1421.96129     152.3475     165.4606    1406.33629     135.7222     140.6047
   1421.94604     152.3417     165.4579    1406.32104     135.8032     140.4137
   1421.93078     152.6833     165.1659    1406.30578     135.5302     140.4236
   1421.91552     152.5829     165.2362    1406.29052     135.4325     140.3797
   1421.90026     152.8428     165.1173    1406.27526     135.8748     140.4949
   1421.88500     152.8974     165.2367    1406.26000     135.7204     140.6048
   1421.86974     152.9520     165.3562    1406.24474     135.5660     140.7146
   1421.85448     153.1827     165.3999    1406.22948     135.2586     139.7984
   1421.83922     153.0973     165.1302    1406.21422     135.3188     140.0076
   1421.82396     153.3584     164.9814    1406.19896     135.2828     139.8238
   1421.80871     153.6116     165.1888    1406.18371     135.1057     139.6342
   1421.79345     153.6647     164.8590    1406.16845     134.9737     139.6099
   1421.77819     153.8767     165.2112    1406.15319     135.0249     139.3415
   1421.76293     153.8406     165.0814    1406.13793     134.9288     139.3336
   1421.74767     154.0908     164.7687    1406.12267     134.9557     139.3831
   1421.73241     153.9378     164.7558    1406.10741     134.9989     139.2253
   1421.71715     154.7216     164.7341    1406.09215     135.0309     139.2775
   1421.70189     154.2945     164.6631    1406.07689     134.9762     139.1009
   1421.68664     154.4183     164.7144    1406.06164     134.8359     139.0452
   1421.67138     154.7953     164.6594    1406.04638     134.8376     138.8085
   1421.65612     154.7988     164.7504    1406.03112     134.6501     139.1176
   1421.64086     154.6579     164.5357    1406.01586     134.7476     138.8706
   1421.62560     155.0815     164.6535    1406.00060     134.7272     139.0926
   1421.61034     155.0214     164.6119    1405.98534     134.7036     138.7856
   1421.59508     155.2405     164.4022    1405.97008     134.7748     138.8127
   1421.57982     155.2941     164.5531    1405.95482     134.5593     138.7174
   1421.56457     155.4950     164.4401    1405.93957     134.6679     138.7569
   1421.54931     155.4942     164.1935    1405.92431     134.4748     138.3034
   1421.53405     155.9365     164.3477    1405.90905     134.4643     138.4478
   1421.51879     156.0704     164.5941    1405.89379     134.4329     138.2953
   1421.50353     155.8648     164.4840    1405.87853     134.5143     138.6419
   1421.48827     156.1441     164.2047    1405.86327     134.2170     138.4168
   1421.47301     156.0992     164.3056    1405.84801     134.1001     138.2503
   1421.45775     156.3809     163.8937    1405.83275     134.1590     138.2788
   1421.44250     156.3516     164.2234    1405.81750     134.0352     138.0725
   1421.42724     156.5834     163.9991    1405.80224     134.0366     138.2204
   1421.41198     156.7897     163.7216    1405.78698     134.1734     138.0125
   1421.39672     157.0236     163.7752    1405.77172     133.8698     138.0528
   1421.38146     156.7875     163.7775    1405.75646     133.7074     137.9212
   1421.36620     156.9202     163.8810    1405.74120     133.9740     138.0943
   1421.35094     157.1081     163.6431    1405.72594     134.0064     137.9599
   1421.33568     157.4662     163.5088    1405.71068     133.6514     138.0423
   1421.32042     157.5059     163.4908    1405.69542     133.7860     137.9421
   1421.30517     157.4670     163.4474    1405.68017     133.5712     137.9073
   1421.28991     157.5339     163.7026    1405.66491     133.9053     137.6466
   1421.27465     157.8226     163.4145    1405.64965     133.5377     137.6931
   1421.25939     157.8576     163.1868    1405.63439     133.4216     137.5027
   1421.24413     158.0434     163.3281    1405.61913     133.6001     137.7100
   1421.22887     158.2005     163.1950    1405.60387     133.5404     137.5531
   1421.21361     158.3413     163.0089    1405.58861     133.4675     137.5675
   1421.19835     158.2037     163.1481    1405.57335     133.4480     137.5280
   1421.18310     158.6243     162.6919    1405.55810     133.3104     137.4357
   1421.16784     158.5232     162.8554    1405.54284     133.2244     137.3348
   1421.15258     158.7360     162.7639    1405.52758     133.1071     137.4681
   1421.13732     158.8844     162.8617    1405.51232     133.1164     137.4531
   1421.12206     158.8541     162.4820    1405.49706     133.2536     137.4793
   1421.10680     158.9815     162.4398    1405.48180     133.2223     137.2733
   1421.09154     159.0537     162.4503    1405.46654     133.1211     137.3032
   1421.07628     159.1690     162.4637    1405.45128     132.9864     137.1531
   1421.06103     159.1738     162.2786    1405.43603     133.1285     137.1653
   1421.04577     159.5692     162.2306    1405.42077     132.6775     137.1194
   1421.03051     159.7430     162.1067    1405.40551     132.8473     136.9455
   1421.01525     159.7594     162.3141    1405.39025     132.6288     137.3383
   1420.99999     159.6968     162.1109    1405.37499     132.9319     136.9943
   1420.98473     159.9648     162.1353    1405.35973     132.7157     137.0476
   1420.96947     159.8936     161.9077    1405.34447     132.7059     136.9050
   1420.95421     160.1929     162.0134    1405.32921     132.5903     136.7755
   1420.93896     160.0365     161.7511    1405.31396     132.5674     137.0029
   1420.92370     160.2974     161.4563    1405.29870     132.4458     136.8910
   1420.90844     160.5587     161.7166    1405.28344     132.2624     136.9105
   1420.89318     160.4066     161.6769    1405.26818     132.3712     136.6795
   1420.87792     160.7663     161.3952    1405.25292     132.2808     136.9461
   1420.86266     160.7807     161.3553    1405.23766     132.2075     136.9602
   1420.84740     160.7745     161.4283    1405.22240     132.2844     136.9307
   1420.83214     161.0976     161.0734    1405.20714     132.2282     136.8289
   1420.81688     160.9760     161.1272    1405.19188     132.2057     136.9225
   1420.80163     161.2468     161.1380    1405.17663     132.0279     136.9606
   1420.78637     161.4624     161.0075    1405.16137     132.1501     136.9825
   1420.77111     161.3335     160.7541    1405.14611     131.9625     136.9043
   1420.75585     161.7391     160.8797    1405.13085     131.8189     136.6748
   1420.74059     161.7643     160.6501    1405.11559     131.9044     136.7563
   1420.72533     161.9101     160.5481    1405.10033     131.7459     136.7083
   1420.71007     161.7698     160.6602    1405.08507     131.6095     136.7778
   1420.69481     161.8118     160.3974    1405.06981     131.6846     136.5938
   1420.67956     162.0830     160.4141    1405.05456     131.5179     136.8111
   1420.66430     162.0591     160.3662    1405.03930     131.4863     136.8927
   1420.64904     162.1555     160.3516    1405.02404     131.4731     136.8800
   1420.63378     162.3457     160.0429    1405.00878     131.3028     136.7630
   1420.61852     162.5428     159.9475    1404.99352     131.4152     136.7234
   1420.60326     162.5909     160.0305    1404.97826     131.4578     136.6413
   1420.58800     162.7789     160.0296    1404.96300     131.1836     136.6634
   1420.57274     162.7628     159.7425    1404.94774     131.4237     136.7585
   1420.55749     162.8858     159.7192    1404.93249     131.2017     136.5895
   1420.54223     163.2487     159.5231    1404.91723     131.1251     136.8049
   1420.52697     163.2416     159.7567    1404.90197     131.0764     136.8532
   1420.51171     163.3686     159.6689    1404.88671     130.9484     136.7779
   1420.49645     163.4920     159.3544    1404.87145     130.8770     136.8715
   1420.48119     163.4426     159.3615    1404.85619     130.7412     136.8138
   1420.46593     163.8211     159.5989    1404.84093     130.7814     136.7774
   1420.45067     163.9894     159.3936    1404.82567     130.6608     136.6477
   1420.43542     164.1169     159.4836    1404.81042     130.7415     136.6555
   1420.42016     164.4110     159.5291    1404.79516     130.6747     136.8171
   1420.40490     164.3892     159.6224    1404.77990     130.6890     136.7457
   1420.38964     164.6891     159.3860    1404.76464     130.2989     136.8083
   1420.37438     165.3140     159.7580    1404.74938     130.5234     136.6022
   1420.35912     165.7525     160.0002    1404.73412     130.5325     136.6942
   1420.34386     166.2138     160.2575    1404.71886     130.0955     136.8913
   1420.32860     167.1228     161.0454    1404.70360     130.3164     136.7522
   1420.31334     168.4550     162.1824    1404.68834     130.3918     137.0029
   1420.29809     171.3585     164.5985    1404.67309     130.2016     136.9132
   1420.28283     176.2612     169.2162    1404.65783     129.9999     136.8868
   1420.26757     184.9905     176.9037    1404.64257     130.0073     136.9461
   1420.25231     197.9298     189.1716    1404.62731     129.9631     136.8834
   1420.23705     218.0232     207.2293    1404.61205     130.0619     136.9267
   1420.22179     236.1876     223.6713    1404.59679     129.8867     137.0090
   1420.20653     236.8234     224.3732    1404.58153     129.9044     137.0516
   1420.19127     222.8277     211.4512    1404.56627     129.6426     136.9382
   1420.17602     202.5765     192.0652    1404.55102     129.6784     137.0424
   1420.16076     186.7701     177.3804    1404.53576     129.5251     136.9546
   1420.14550     177.2472     168.5315    1404.52050     129.4358     137.0696
   1420.13024     172.3795     164.0555    1404.50524     129.6645     136.9247
   1420.11498     170.1917     161.5320    1404.48998     129.3524     137.1536
   1420.09972     168.7651     160.0295    1404.47472     129.4287     136.9845
   1420.08446     167.6523     158.9808    1404.45946     129.2221     137.2709
   1420.06920     166.8302     157.8904    1404.44420     129.1385     137.2202
   1420.05395     166.1625     157.1261    1404.42895     129.2458     137.1296
   1420.03869     165.7266     156.7566    1404.41369     129.2564     137.1959
   1420.02343     165.3298     156.2984    1404.39843     129.1271     137.4301
   1420.00817     165.4428     155.6255    1404.38317     129.1232     137.4324
   1419.99291     165.1701     155.8231    1404.36791     129.0370     137.3937
   1419.97765     165.2534     155.6820    1404.35265     128.9367     137.4387
   1419.96239     165.1321     155.3214    1404.33739     128.9374     137.3450
   1419.94713     164.9860     155.0786    1404.32213     128.8108     137.3211
   1419.93187     165.1624     154.9539    1404.30687     128.6536     137.4257
   1419.91662     164.9838     155.0056    1404.29162     128.4516     137.3639
   1419.90136     164.8841     154.6214    1404.27636     128.5657     137.4838
   1419.88610     164.7849     154.4547    1404.26110     128.3866     137.4671
   1419.87084     165.0194     154.2884    1404.24584     128.4424     137.4497
   1419.85558     165.0868     154.1979    1404.23058     128.4269     137.4884
   1419.84032     165.2412     154.2545    1404.21532     128.5170     137.7348
   1419.82506     165.0316     153.9564    1404.20006     128.2218     137.7286
   1419.80980     165.1668     153.7615    1404.18480     128.2790     137.6141
   1419.79455     164.9877     153.6819    1404.16955     128.1592     137.7685
   1419.77929     165.1221     153.5089    1404.15429     128.0716     137.6955
   1419.76403     165.0652     153.3708    1404.13903     128.1341     137.7966
   1419.74877     165.1520     153.3953    1404.12377     127.9649     137.8484
   1419.73351     164.8970     153.1806    1404.10851     127.8244     137.9334
   1419.71825     165.2245     153.2529    1404.09325     128.0665     138.1785
   1419.70299     164.8383     152.8295    1404.07799     127.7729     137.9170
   1419.68773     164.9763     152.9539    1404.06273     127.7180     138.2947
   1419.67248     165.0470     152.7210    1404.04748     127.7021     138.0452
   1419.65722     165.1927     152.6177    1404.03222     127.6200     138.3405
   1419.64196     165.1302     152.5108    1404.01696     127.5278     138.0876
   1419.62670     164.7290     152.4376    1404.00170     127.4335     138.3164
   1419.61144     165.3248     152.2570    1403.98644     127.4064     138.2099
   1419.59618     165.0693     152.0359    1403.97118     127.3724     138.3269
   1419.58092     165.0653     151.9372    1403.95592     127.4033     138.5812
   1419.56566     164.8592     151.9479    1403.94066     127.1360     138.4617
   1419.55041     164.8348     151.8428    1403.92541     127.2437     138.3124
   1419.53515     165.3134     151.6706    1403.91015     127.1626     138.9172
   1419.51989     164.9595     151.4024    1403.89489     127.0705     138.7363
   1419.50463     164.7036     151.4210    1403.87963     126.9705     138.7998
   1419.48937     164.9441     151.4021    1403.86437     126.8802     138.9352
   1419.47411     164.8835     151.0701    1403.84911     126.8876     138.7478
   1419.45885     164.8333     150.9081    1403.83385     127.1640     138.8961
   1419.44359     164.7664     150.9424    1403.81859     126.8023     139.0507
   1419.42833     164.7760     150.8646    1403.80333     126.7980     139.1040
   1419.41308     164.8023     150.6686    1403.78808     126.7823     139.2395
   1419.39782     164.9494     150.5352    1403.77282     126.6092     139.1630
   1419.38256     164.7509     150.4877    1403.75756     126.5039     139.2384
   1419.36730     164.6719     150.2616    1403.74230     126.4178     139.4240
   1419.35204     164.5896     150.0485    1403.72704     126.4737     139.5000
   1419.33678     164.7098     149.9829    1403.71178     126.3451     139.3441
   1419.32152     164.5877     150.0375    1403.69652     126.2850     139.4928
   1419.30626     164.6421     149.8123    1403.68126     126.3737     139.6426
   1419.29101     164.3261     149.6530    1403.66601     126.1756     139.4784
   1419.27575     164.5927     149.5180    1403.65075     126.1455     139.7638
   1419.26049     164.3018     149.5707    1403.63549     126.0515     139.8880
   1419.24523     164.4817     149.3044    1403.62023     126.0869     139.8062
   1419.22997     164.1965     149.5332    1403.60497     126.0437     139.9239
   1419.21471     164.2342     149.3205    1403.58971     125.9361     139.9392
   1419.19945     164.3939     149.1352    1403.57445     125.8594     140.0229
   1419.18419     164.1893     148.9703    1403.55919     125.8136     140.2337
   1419.16894     164.1632     148.6802    1403.54394     125.7643     140.0642
   1419.15368     164.2141     148.7313    1403.52868     125.9091     140.3874
   1419.13842     163.9588     148.7436    1403.51342     125.6985     140.4477
   1419.12316     163.7055     148.6674    1403.49816     125.5817     140.6416
   1419.10790     163.6856     148.3502    1403.48290     125.7748     140.5209
   1419.09264     163.7628     148.2057    1403.46764     125.5498     140.6799
   1419.07738     163.6477     148.0570    1403.45238     125.4312     140.6947
   1419.06212     163.8069     148.0463    1403.43712     125.5104     140.9896
   1419.04687     163.7651     148.0473    1403.42187     125.4287     141.2186
   1419.03161     163.6824     147.9467    1403.40661     125.3165     141.2297
   1419.01635     163.5033     147.7984    1403.39135     125.4489     141.4036
   1419.00109     163.4227     147.7044    1403.37609     125.3673     141.4202
   1418.98583     163.3207     147.6472    1403.36083     125.3634     141.3860
   1418.97057     163.0389     147.3443    1403.34557     125.2080     141.5877
   1418.95531     163.1114     147.2665    1403.33031     125.4349     141.5273
   1418.94005     163.1155     147.3856    1403.31505     125.2329     141.8282
   1418.92479     162.9890     147.0288    1403.29979     125.2069     141.8212
   1418.90954     162.9449     147.1006    1403.28454     125.1778     141.8119
   1418.89428     162.9064     147.0800    1403.26928     125.1109     141.7764
   1418.87902     162.9064     146.8248    1403.25402     125.0642     142.0533
   1418.86376     162.8915     146.8508    1403.23876     125.0862     142.2285
   1418.84850     162.7885     146.5227    1403.22350     125.0254     142.3368
   1418.83324     162.4962     146.6783    1403.20824     125.0268     142.3813
   1418.81798     162.6628     146.4379    1403.19298     124.8212     142.5433
   1418.80272     162.3429     146.4398    1403.17772     124.9719     142.6274
   1418.78747     162.1714     146.2164    1403.16247     124.8387     142.6377
   1418.77221     162.3623     146.3258    1403.14721     124.8003     143.0132
   1418.75695     162.0238     146.2363    1403.13195     124.7187     143.0024
   1418.74169     162.1738     146.2070    1403.11669     124.8436     143.1412
   1418.72643     162.2310     146.1853    1403.10143     124.6799     143.3512
   1418.71117     162.1370     146.0490    1403.08617     124.5920     143.3140
   1418.69591     161.7778     145.7200    1403.07091     124.5625     143.6994
   1418.68065     161.5339     145.7348    1403.05565     124.6817     143.4756
   1418.66540     161.4825     145.5140    1403.04040     124.6487     143.8725
   1418.65014     161.6431     145.5570    1403.02514     124.4582     143.7979
   1418.63488     161.5724     145.6324    1403.00988     124.5984     144.0077
   1418.61962     161.2623     145.5592    1402.99462     124.4414     144.2049
   1418.60436     161.3672     145.5650    1402.97936     124.6148     144.4531
   1418.58910     161.2421     145.2736    1402.96410     124.4210     144.4101
   1418.57384     161.2634     145.3158    1402.94884     124.5430     144.6954
   1418.55858     161.0184     145.0594    1402.93358     124.5375     144.7163
   1418.54333     160.8241     144.8303    1402.91833     124.4247     144.9952
   1418.52807     160.5755     144.9957    1402.90307     124.5667     144.8979
   1418.51281     160.7379     144.9984    1402.88781     124.5132     145.1333
   1418.49755     160.7149     144.9646    1402.87255     124.3877     145.2211
   1418.48229     160.6711     144.7252    1402.85729     124.4028     145.3104
   1418.46703     160.4298     144.7569    1402.84203     124.2754     145.5719
   1418.45177     160.4776     144.5272    1402.82677     124.3433     145.8256
   1418.43651     159.9495     144.5696    1402.81151     124.3222     145.6854
   1418.42125     160.0789     144.6342    1402.79625     124.4406     145.8195
   1418.40600     160.1295     144.3123    1402.78100     124.2698     146.1682
   1418.39074     159.7794     144.5192    1402.76574     124.0979     146.3959
   1418.37548     159.6342     144.2567    1402.75048     124.2499     146.2808
   1418.36022     159.7270     144.3662    1402.73522     124.3108     146.4647
   1418.34496     159.2186     144.1542    1402.71996     124.1744     146.6735
   1418.32970     159.4614     144.0744    1402.70470     124.2090     146.8737
   1418.31444     159.2848     144.0180    1402.68944     124.1495     146.9637
   1418.29918     159.0411     143.8893    1402.67418     124.0850     147.2662
   1418.28393     159.0246     144.0542    1402.65893     124.2459     147.3813
   1418.26867     158.7949     143.5824    1402.64367     124.2118     147.7382
   1418.25341     158.7605     143.7043    1402.62841     124.1418     147.6398
   1418.23815     158.7019     143.9632    1402.61315     124.2588     147.7908
   1418.22289     158.6003     143.6874    1402.59789     124.2512     148.0578
   1418.20763     158.3915     143.9091    1402.58263     124.0172     148.0232
   1418.19237     158.3841     143.5799    1402.56737     124.1521     148.2696
   1418.17711     158.1024     143.7309    1402.55211     124.1706     148.4897
   1418.16186     158.1262     143.7443    1402.53686     124.2085     148.6178
   1418.14660     158.0569     143.4710    1402.52160     124.3332     148.8913
   1418.13134     157.7575     143.6224    1402.50634     124.4294     149.2527
   1418.11608     157.3945     143.2966    1402.49108     124.1982     149.1967
   1418.10082     157.5668     143.2373    1402.47582     124.2792     149.4261
   1418.08556     157.5160     143.5750    1402.46056     124.2973     149.3208
   1418.07030     157.2619     143.3313    1402.44530     124.2692     149.6521
   1418.05504     157.0846     143.2509    1402.43004     124.1744     149.7512
   1418.03979     156.9305     143.4167    1402.41479     124.2586     149.8280
   1418.02453     156.6617     143.0841    1402.39953     124.3709     150.0875
   1418.00927     156.4480     143.1443    1402.38427     124.1901     150.2750
   1417.99401     156.6705     142.9619    1402.36901     124.3944     150.5418
   1417.97875     156.5800     143.0326    1402.35375     124.2158     150.4972
   1417.96349     156.4007     143.0016    1402.33849     124.2294     150.7465
   1417.94823     156.2228     142.7673    1402.32323     124.2964     150.8582
   1417.93297     156.0131     142.8875    1402.30797     124.3203     151.1846
   1417.91771     155.6756     142.7071    1402.29271     124.2537     151.3897
   1417.90246     155.6042     142.8690    1402.27746     124.2486     151.3302
   1417.88720     155.6198     142.8741    1402.26220     124.2470     151.8816
   1417.87194     155.3852     142.7840    1402.24694     124.2716     151.7690
   1417.85668     155.1189     142.7505    1402.23168     124.3632     151.9388
   1417.84142     155.0944     142.6124    1402.21642     124.2941     152.0372
   1417.82616     154.7189     142.4936    1402.20116     124.4528     152.4573
   1417.81090     154.7880     142.4766    1402.18590     124.3211     152.5597
   1417.79564     154.4724     142.6268    1402.17064     124.3452     152.7215
   1417.78039     154.2721     142.5114    1402.15539     124.4670     153.1325
   1417.76513     154.2906     142.4017    1402.14013     124.4838     153.2164
   1417.74987     153.8861     142.4998    1402.12487     124.4239     153.1682
   1417.73461     153.8395     142.3208    1402.10961     124.3257     153.3854
   1417.71935     153.9676     142.3307    1402.09435     124.4411     153.7158
   1417.70409     153.4028     142.1715    1402.07909     124.5096     153.6953
   1417.68883     153.2220     142.3228    1402.06383     124.4772     153.8093
   1417.67357     153.0791     141.9752    1402.04857     124.4658     154.1906
   1417.65832     153.0189     142.3467    1402.03332     124.3907     154.2762
   1417.64306     152.9394     142.1537    1402.01806     124.4608     154.4915
   1417.62780     152.6433     142.1433    1402.00280     124.5196     154.3782
   1417.61254     152.2313     142.0679    1401.98754     124.5627     154.7061
   1417.59728     152.2879     141.8643    1401.97228     124.5537     154.6818
   1417.58202     152.1615     141.9680    1401.95702     124.4642     155.0172
   1417.56676     151.9542     141.9078    1401.94176     124.5108     155.5192
   1417.55150     151.7285     141.8447    1401.92650     124.4222     155.4040
   1417.53625     151.7472     141.8705    1401.91125     124.2858     155.3327
   1417.52099     151.3706     141.8121    1401.89599     124.5898     155.7518
   1417.50573     151.0273     141.6517    1401.88073     124.3793     155.9435
   1417.49047     150.8279     141.8174    1401.86547     124.4576     156.2304
   1417.47521     150.5789     141.4692    1401.85021     124.5812     156.0878
   1417.45995     150.4426     141.6637    1401.83495     124.4347     156.1201
   1417.44469     150.3154     141.4238    1401.81969     124.3996     156.6906
   1417.42943     150.1284     141.2320    1401.80443     124.6953     156.5759
   1417.41417     149.8985     141.4120    1401.78917     124.2408     156.7840
   1417.39892     149.6714     141.4130    1401.77392     124.2943     157.0286
   1417.38366     149.3434     141.4217    1401.75866     124.5299     157.2971
   1417.36840     149.2137     141.2929    1401.74340     124.3987     157.1658
   1417.35314     149.2329     140.9637    1401.72814     124.4624     157.5120
   1417.33788     148.8326     141.1605    1401.71288     124.4032     157.5614
   1417.32262     148.7221     140.9158    1401.69762     124.3753     157.6887
   1417.30736     148.2208     140.8757    1401.68236     124.2668     158.0084
   1417.29210     147.7774     140.9917    1401.66710     124.5238     158.1205
   1417.27685     147.6246     140.7063    1401.65185     124.3243     157.9941
   1417.26159     147.3226     140.5432    1401.63659     124.3894     158.2496
   1417.24633     147.4421     140.7440    1401.62133     124.3019     158.3717
   1417.23107     147.0613     140.5716    1401.60607     124.1737     158.7036
   1417.21581     146.9801     140.3798    1401.59081     124.2482     158.6307
   1417.20055     146.7192     140.4764    1401.57555     124.3581     158.8304
   1417.18529     146.1122     140.2400    1401.56029     124.0204     158.9231
   1417.17003     146.1241     140.2119    1401.54503     124.2606     158.6951
   1417.15478     145.8153     139.9899    1401.52978     124.0214     159.0777
   1417.13952     145.5468     140.0966    1401.51452     124.0752     159.0895
   1417.12426     145.2474     139.7756    1401.49926     124.1338     159.3286
   1417.10900     144.7236     139.9867    1401.48400     123.9412     159.3015
   1417.09374     144.7282     139.8131    1401.46874     123.8774     159.3479
   1417.07848     144.4362     139.5353    1401.45348     123.9478     159.5048
   1417.06322     144.0376     139.5506    1401.43822     123.8184     159.5479
   1417.04796     143.8488     139.4247    1401.42296     123.8755     159.8063
   1417.03271     143.5955     139.2167    1401.40771     123.6238     159.9314
   1417.01745     143.1743     139.2231    1401.39245     123.7798     159.8594
   1417.00219     142.9866     138.9944    1401.37719     123.6327     159.8988
   1416.98693     142.6138     139.0367    1401.36193     123.4915     160.0379
   1416.97167     142.3877     138.8497    1401.34667     123.6444     160.0856
   1416.95641     142.0926     138.7411    1401.33141     123.6092     160.1527
   1416.94115     141.7994     138.7004    1401.31615     123.5322     159.8748
   1416.92589     141.2806     138.5456    1401.30089     123.4828     160.2553
   1416.91063     141.0662     138.3609    1401.28563     123.2629     160.3514
   1416.89538     140.9235     138.0523    1401.27038     123.0118     160.4841
   1416.88012     140.6113     137.9821    1401.25512     123.3075     160.3535
   1416.86486     140.1244     137.9629    1401.23986     122.9845     160.1790
   1416.84960     139.8307     138.0514    1401.22460     123.1055     160.4396
   1416.83434     139.5512     137.6607    1401.20934     123.0298     160.3995
   1416.81908     139.3411     137.4297    1401.19408     122.6954     160.5025
   1416.80382     138.9948     137.3317    1401.17882     122.6988     160.4015
   1416.78856     138.6549     137.1636    1401.16356     122.5706     160.4438
   1416.77331     138.2910     136.8371    1401.14831     122.5700     160.3190
   1416.75805     137.8317     136.7208    1401.13305     122.3002     160.4623
   1416.74279     137.4127     136.6224    1401.11779     122.2029     160.3101
   1416.72753     137.0968     136.3541    1401.10253     122.2443     160.4124
   1416.71227     136.7695     136.1856    1401.08727     122.0171     160.1601
   1416.69701     136.3204     136.1193    1401.07201     121.9657     160.3071
   1416.68175     136.1436     135.6929    1401.05675     121.8747     160.1583
   1416.66649     135.7631     135.7644    1401.04149     121.7771     160.2991
   1416.65124     135.2697     135.4301    1401.02624     121.6040     160.3037
   1416.63598     134.9767     135.2728    1401.01098     121.3511     160.1742
   1416.62072     134.4967     134.9184    1400.99572     121.3130     160.1181
   1416.60546     134.2250     134.9111    1400.98046     121.2674     160.0634
   1416.59020     133.7783     134.7539    1400.96520     121.0853     159.8261
   1416.57494     133.1930     134.4216    1400.94994     120.9817     159.8672
   1416.55968     133.0856     134.2448    1400.93468     120.7454     159.8301
   1416.54442     132.6222     133.9625    1400.91942     120.5202     159.7223
   1416.52917     132.0456     133.7092    1400.90417     120.4136     159.5358
   1416.51391     131.8092     133.5480    1400.88891     120.1944     159.4975
   1416.49865     131.5414     133.0385    1400.87365     119.9373     159.2165
   1416.48339     131.0748     132.9010    1400.85839     119.7749     159.1780
   1416.46813     130.6257     132.6805    1400.84313     120.0871     159.0276
   1416.45287     130.1067     132.5174    1400.82787     119.7375     158.9482
   1416.43761     129.5533     132.1750    1400.81261     119.3803     158.8180
   1416.42235     129.3406     131.9658    1400.79735     119.1723     158.7392
   1416.40709     128.9027     131.7224    1400.78209     118.9459     158.5978
   1416.39184     128.4139     131.3398    1400.76684     118.8596     158.3117
   1416.37658     127.9650     131.0255    1400.75158     118.6094     158.1352
   1416.36132     127.5277     130.9159    1400.73632     118.4021     157.6606
   1416.34606     126.9743     130.6932    1400.72106     117.9931     158.0324
   1416.33080     126.6790     130.2334    1400.70580     117.9985     157.6369
   1416.31554     126.3651     129.7988    1400.69054     117.6967     157.2935
   1416.30028     125.7433     129.4448    1400.67528     117.4764     157.0650
   1416.28502     125.2809     129.1325    1400.66002     117.1458     156.9808
   1416.26977     124.7231     129.0630    1400.64477     117.0884     156.6276
   1416.25451     124.2682     128.6782    1400.62951     116.6547     156.4934
   1416.23925     123.9026     128.2411    1400.61425     116.4925     155.9612
   1416.22399     123.5055     128.0321    1400.59899     116.3381     156.1168
   1416.20873     122.8162     127.4529    1400.58373     115.9894     155.6973
   1416.19347     122.3127     127.1572    1400.56847     115.7074     155.5210
   1416.17821     122.0208     126.8870    1400.55321     115.4560     155.0135
   1416.16295     121.6635     126.6219    1400.53795     115.3491     154.9169
   1416.14770     121.0990     125.9451    1400.52270     114.9877     154.5268
   1416.13244     120.4907     125.6462    1400.50744     114.6763     154.3071
   1416.11718     119.8287     125.4831    1400.49218     114.3157     154.0236
   1416.10192     119.5143     125.1960    1400.47692     114.0774     153.7878
   1416.08666     119.1820     124.6908    1400.46166     113.8492     153.3189
   1416.07140     118.5932     124.2685    1400.44640     113.5256     153.0221
   1416.05614     117.9389     123.9337    1400.43114     113.1607     152.7735
   1416.04088     117.5543     123.2905    1400.41588     113.0780     152.2710
   1416.02562     116.7669     123.2453    1400.40062     112.5421     152.0756
   1416.01037     116.4583     122.7126    1400.38537     112.2681     151.6227
   1415.99511     115.9665     122.3611    1400.37011     112.0171     151.2970
   1415.97985     115.4242     121.9821    1400.35485     111.6331     150.7033
   1415.96459     114.9554     121.3554    1400.33959     111.2930     150.4790
   1415.94933     114.4966     121.0739    1400.32433     110.8659     150.1309
   1415.93407     113.7568     120.2973    1400.30907     110.6775     149.6225
   1415.91881     113.3214     120.2282    1400.29381     110.2374     149.2196
   1415.90355     112.7871     119.7391    1400.27855     109.8826     148.6356
   1415.88830     112.3258     119.3645    1400.26330     109.4511     148.2465
   1415.87304     111.8229     118.7037    1400.24804     109.3220     147.9324
   1415.85778     111.2289     118.3442    1400.23278     108.8589     147.4650
   1415.84252     110.7330     117.9749    1400.21752     108.5358     147.2948
   1415.82726     110.0293     117.4067    1400.20226     108.1224     146.8053
   1415.81200     109.5523     116.9526    1400.18700     107.6088     146.2163
   1415.79674     109.0115     116.3811    1400.17174     107.4121     145.9835
   1415.78148     108.5846     115.9915    1400.15648     106.8583     145.3223
   1415.76623     107.7307     115.6016    1400.14123     106.5581     144.8258
   1415.75097     107.4232     114.9370    1400.12597     106.0531     144.3247
   1415.73571     106.9245     114.5612    1400.11071     105.6898     144.0805
   1415.72045     106.3399     114.1459    1400.09545     105.4318     143.4370
   1415.70519     105.7019     113.5996    1400.08019     105.0952     142.6199
   1415.68993     105.3568     113.0691    1400.06493     104.4719     142.5271
   1415.67467     104.7120     112.4862    1400.04967     104.2163     141.9618
   1415.65941     104.0022     112.1276    1400.03441     103.6506     141.2771
   1415.64416     103.5267     111.4508    1400.01916     103.2999     140.7049
   1415.62890     103.0024     111.0212    1400.00390     106.8531     141.0301
   1415.61364     102.4346     110.4846    1399.98864     102.5412     139.8471
   1415.59838     101.9545     110.0509    1399.97338     102.0475     139.1921
   1415.58312     101.4149     109.4826    1399.95812     101.6252     138.6439
   1415.56786     100.8404     108.9670    1399.94286     101.2627     138.1173
   1415.55260     100.3161     108.3721    1399.92760     100.8208     137.5781
   1415.53734      99.6889     108.0156    1399.91234     100.2798     136.8653
   1415.52208      99.2615     107.4208    1399.89708      99.9150     136.2499
   1415.50683      98.4899     106.8200    1399.88183      99.3043     135.8603
   1415.49157      98.0218     106.2946    1399.86657      98.9875     135.1282
   1415.47631      97.4873     105.7914    1399.85131      98.5166     134.6444
   1415.46105      96.9277     105.2468    1399.83605      98.1106     134.1347
   1415.44579      96.3094     104.6551    1399.82079      97.6375     133.2496
   1415.43053      95.7305     104.1201    1399.80553      97.1672     132.8605
   1415.41527      95.2273     103.5240    1399.79027      96.5973     131.9931
   1415.40001      94.7870     103.0397    1399.77501      96.2524     131.3494
   1415.38476      94.0244     102.3533    1399.75976      95.7112     130.8768
   1415.36950      93.6058     101.9204    1399.74450      95.1564     130.2423
   1415.35424      93.0848     101.4936    1399.72924      94.7340     129.7832
   1415.33898      92.3685     100.8580    1399.71398      94.1615     129.1374
   1415.32372      91.9852     100.3022    1399.69872      93.8416     128.4409
   1415.30846      91.4785      99.6665    1399.68346      93.3448     127.6754
   1415.29320      90.9469      99.2919    1399.66820      92.9006     127.1820
   1415.27794      90.3014      98.7145    1399.65294      92.3722     126.4727
   1415.26269      89.8006      97.9649    1399.63769      91.9988     125.7392
   1415.24743      89.2750      97.6064    1399.62243      91.4537     125.3909
   1415.23217      88.7611      96.8465    1399.60717      90.9603     124.6539
   1415.21691      88.2541      96.3012    1399.59191      90.4902     123.9836
   1415.20165      87.7012      95.8631    1399.57665      90.0260     123.3147
   1415.18639      87.1980      95.2855    1399.56139      89.5403     122.6291
   1415.17113      86.6836      94.6319    1399.54613      88.9807     122.0741
   1415.15587      86.1559      93.9753    1399.53087      88.4960     121.2150
   1415.14062      85.5985      93.4047    1399.51562      88.0833     120.7541
   1415.12536      85.1932      92.8457    1399.50036      87.4971     120.1898
   1415.11010      84.5527      92.3467    1399.48510      87.1015     119.2461
   1415.09484      84.0365      91.8849    1399.46984      86.6561     118.9032
   1415.07958      83.5870      91.2552    1399.45458      86.0687     117.9916
   1415.06432      83.1015      90.6791    1399.43932      85.6199     117.3009
   1415.04906      82.5756      90.2117    1399.42406      85.1295     116.7059
   1415.03380      82.0191      89.6399    1399.40880      84.7778     116.0607
   1415.01854      81.6279      88.9984    1399.39354      84.1462     115.4698
   1415.00329      81.1643      88.5379    1399.37829      83.7324     114.9140
   1414.98803      80.6902      87.8969    1399.36303      83.2256     114.1869
   1414.97277      80.1803      87.3589    1399.34777      82.8272     113.5903
   1414.95751      79.6661      86.7484    1399.33251      82.2723     112.9682
   1414.94225      79.2696      86.2669    1399.31725      81.8860     112.2107
   1414.92699      78.8186      85.7259    1399.30199      81.3986     111.7303
   1414.91173      78.2089      85.0134    1399.28673      80.9121     110.9561
   1414.89647      77.9091      84.7129    1399.27147      80.5206     110.5213
   1414.88122      77.4154      84.0368    1399.25622      79.9346     109.6903
